SpectraSuite Datei
++++++++++++++++++++++++++++++++++++
Datum: Mon Dec 11 15:23:27 CET 2017
Benutzer: Praktikum-Pc1
Dark-Spektrum vorhanden: Ja
Referenz-Spektrum vorhanden: Nein
Zahl der probierten Teilspektren: 1
Spektrometer: USB4H10187
Integrationszeit (usec): 150000 (USB4H10187)
Spektren Durchschnitt berechnet: 4 (USB4H10187)
Boxcar Glättung: 0 (USB4H10187)
Dunkelstromkorrektur: Nein (USB4H10187)
Puls/Lampe aktiviert: Nein (USB4H10187)
Correct for Detector Non-linearity: Nein (USB4H10187)
Streulichtkorrektur: Nein (USB4H10187)
Anzahl Pixel in verarbeitetem Spektrum: 3648
>>>>>Begin Processed Spectral Data<<<<<
176,80	-12,29
177,02	-12,29
177,24	-12,29
177,46	-13,82
177,68	10,24
177,91	128,00
178,13	146,94
178,35	119,29
178,57	78,33
178,79	151,55
179,02	219,13
179,24	121,85
179,46	157,69
179,68	98,81
179,90	44,03
180,12	172,03
180,35	124,93
180,57	94,72
180,79	154,62
181,01	86,01
181,23	113,66
181,46	145,41
181,68	170,49
181,90	164,35
182,12	203,77
182,34	188,93
182,56	110,08
182,79	80,38
183,01	123,90
183,23	121,85
183,45	135,68
183,67	67,07
183,89	140,29
184,12	132,09
184,34	159,23
184,56	219,13
184,78	105,47
185,00	192,00
185,22	82,94
185,45	85,50
185,67	168,96
185,89	145,92
186,11	128,00
186,33	154,11
186,55	163,84
186,77	151,04
187,00	111,61
187,22	128,51
187,44	86,53
187,66	68,09
187,88	92,67
188,10	241,66
188,32	81,92
188,55	136,19
188,77	168,45
188,99	81,92
189,21	213,50
189,43	158,21
189,65	94,21
189,87	163,33
190,10	257,02
190,32	208,89
190,54	156,16
190,76	207,36
190,98	111,10
191,20	219,13
191,42	139,26
191,64	100,35
191,87	131,58
192,09	158,72
192,31	97,79
192,53	107,52
192,75	140,80
192,97	116,22
193,19	95,23
193,41	68,61
193,64	183,81
193,86	97,79
194,08	153,60
194,30	92,67
194,52	137,21
194,74	162,30
194,96	30,72
195,18	163,33
195,40	93,69
195,63	146,94
195,85	66,05
196,07	66,56
196,29	149,50
196,51	145,41
196,73	155,65
196,95	142,33
197,17	102,91
197,39	130,05
197,61	202,24
197,84	155,13
198,06	122,88
198,28	150,01
198,50	6,14
198,72	186,88
198,94	163,33
199,16	147,97
199,38	238,59
199,60	68,61
199,82	83,97
200,04	147,45
200,26	185,85
200,49	99,84
200,71	73,21
200,93	168,45
201,15	116,22
201,37	83,97
201,59	112,64
201,81	155,13
202,03	211,45
202,25	33,28
202,47	119,29
202,69	129,53
202,91	147,45
203,13	139,26
203,35	114,17
203,58	77,82
203,80	179,71
204,02	84,99
204,24	6,14
204,46	163,33
204,68	205,31
204,90	106,49
205,12	159,74
205,34	149,50
205,56	158,72
205,78	208,38
206,00	126,46
206,22	148,48
206,44	168,96
206,66	61,44
206,88	169,98
207,10	85,50
207,32	212,48
207,54	133,63
207,76	114,69
207,99	102,91
208,21	128,51
208,43	160,25
208,65	74,24
208,87	141,31
209,09	143,87
209,31	125,44
209,53	71,17
209,75	221,18
209,97	161,28
210,19	111,10
210,41	132,61
210,63	98,30
210,85	92,67
211,07	211,96
211,29	158,21
211,51	182,27
211,73	180,73
211,95	175,10
212,17	176,64
212,39	133,63
212,61	142,33
212,83	70,65
213,05	171,01
213,27	198,65
213,49	135,17
213,71	125,44
213,93	131,58
214,15	160,25
214,37	179,20
214,59	162,81
214,81	101,89
215,03	88,57
215,25	125,95
215,47	166,91
215,69	144,38
215,91	126,97
216,13	128,51
216,35	166,40
216,57	80,38
216,79	140,29
217,01	189,44
217,23	126,97
217,45	157,69
217,67	181,76
217,89	199,16
218,11	184,83
218,33	144,38
218,55	119,29
218,77	154,11
218,99	93,69
219,21	140,80
219,43	117,76
219,65	197,63
219,87	208,38
220,09	203,77
220,31	108,54
220,53	164,86
220,75	109,05
220,97	114,69
221,19	55,30
221,41	86,53
221,63	128,51
221,85	194,56
222,06	172,54
222,28	185,85
222,50	141,31
222,72	166,91
222,94	85,50
223,16	169,47
223,38	218,62
223,60	66,56
223,82	141,82
224,04	212,48
224,26	142,85
224,48	144,89
224,70	180,22
224,92	126,97
225,14	160,77
225,36	179,71
225,58	134,14
225,80	205,82
226,02	168,45
226,24	122,88
226,45	140,80
226,67	91,65
226,89	46,08
227,11	146,43
227,33	143,87
227,55	34,30
227,77	143,87
227,99	92,67
228,21	121,85
228,43	119,81
228,65	137,73
228,87	150,01
229,09	51,20
229,31	86,53
229,52	83,97
229,74	31,23
229,96	177,15
230,18	169,47
230,40	151,55
230,62	114,69
230,84	205,31
231,06	9,22
231,28	93,18
231,50	124,93
231,72	121,85
231,94	122,88
232,15	160,77
232,37	104,45
232,59	107,01
232,81	199,16
233,03	59,39
233,25	148,48
233,47	81,41
233,69	137,21
233,91	74,75
234,13	69,12
234,34	95,74
234,56	91,65
234,78	198,65
235,00	33,79
235,22	97,28
235,44	103,42
235,66	107,01
235,88	103,93
236,10	132,09
236,31	151,55
236,53	182,27
236,75	164,86
236,97	99,84
237,19	178,69
237,41	125,44
237,63	199,16
237,85	150,01
238,07	189,44
238,28	154,62
238,50	128,00
238,72	106,49
238,94	155,13
239,16	152,06
239,38	161,79
239,60	186,37
239,81	54,78
240,03	126,97
240,25	88,06
240,47	171,01
240,69	124,41
240,91	164,35
241,13	237,56
241,34	123,90
241,56	128,51
241,78	123,90
242,00	87,04
242,22	82,94
242,44	212,48
242,66	114,17
242,87	98,81
243,09	162,81
243,31	108,54
243,53	88,57
243,75	202,75
243,97	117,25
244,19	151,55
244,40	188,93
244,62	159,74
244,84	235,00
245,06	144,38
245,28	83,45
245,50	166,40
245,71	190,46
245,93	104,45
246,15	158,21
246,37	192,51
246,59	195,58
246,81	139,26
247,02	84,48
247,24	144,38
247,46	113,15
247,68	183,81
247,90	177,15
248,11	171,01
248,33	117,25
248,55	141,82
248,77	71,68
248,99	180,22
249,21	78,33
249,42	103,42
249,64	201,21
249,86	111,61
250,08	118,78
250,30	133,63
250,51	156,16
250,73	34,30
250,95	117,76
251,17	182,27
251,39	131,58
251,60	199,16
251,82	217,60
252,04	154,11
252,26	133,12
252,48	124,41
252,69	207,36
252,91	190,46
253,13	122,37
253,35	227,84
253,57	164,35
253,78	105,98
254,00	147,45
254,22	125,95
254,44	81,92
254,65	109,57
254,87	151,55
255,09	147,45
255,31	158,21
255,53	112,64
255,74	111,10
255,96	215,55
256,18	180,22
256,40	148,99
256,61	130,56
256,83	239,61
257,05	132,09
257,27	224,76
257,48	105,98
257,70	142,33
257,92	141,31
258,14	178,69
258,36	119,81
258,57	253,44
258,79	105,98
259,01	164,86
259,23	160,25
259,44	99,33
259,66	196,61
259,88	205,82
260,10	153,09
260,31	160,25
260,53	214,01
260,75	94,21
260,97	171,01
261,18	144,89
261,40	214,52
261,62	101,37
261,84	180,73
262,05	155,13
262,27	204,80
262,49	134,14
262,71	135,68
262,92	183,29
263,14	155,65
263,36	135,17
263,57	214,01
263,79	175,10
264,01	153,60
264,23	88,57
264,44	131,58
264,66	142,85
264,88	174,08
265,10	112,13
265,31	201,21
265,53	119,81
265,75	188,41
265,96	137,73
266,18	214,01
266,40	173,05
266,62	224,76
266,83	242,68
267,05	99,84
267,27	180,73
267,48	269,31
267,70	53,25
267,92	127,49
268,14	194,05
268,35	186,37
268,57	186,88
268,79	243,71
269,00	218,11
269,22	192,51
269,44	166,91
269,65	139,77
269,87	151,04
270,09	150,01
270,31	136,70
270,52	182,27
270,74	180,73
270,96	105,47
271,17	180,73
271,39	96,25
271,61	197,63
271,82	180,73
272,04	163,84
272,26	143,36
272,47	172,54
272,69	137,21
272,91	97,28
273,12	161,79
273,34	156,67
273,56	118,27
273,77	128,51
273,99	157,18
274,21	189,95
274,42	109,05
274,64	187,39
274,86	87,55
275,08	156,67
275,29	48,64
275,51	170,49
275,72	141,82
275,94	190,46
276,16	136,70
276,37	145,92
276,59	119,81
276,81	94,72
277,02	157,18
277,24	158,21
277,46	142,33
277,67	111,61
277,89	179,20
278,11	165,89
278,32	171,01
278,54	90,11
278,76	300,03
278,97	243,71
279,19	187,90
279,41	138,75
279,62	142,85
279,84	163,33
280,05	150,01
280,27	164,35
280,49	152,57
280,70	139,77
280,92	134,65
281,14	165,89
281,35	27,65
281,57	179,71
281,79	104,45
282,00	202,75
282,22	277,50
282,43	232,96
282,65	156,67
282,87	91,13
283,08	161,79
283,30	244,73
283,52	244,73
283,73	155,13
283,95	171,52
284,16	103,42
284,38	182,78
284,60	208,89
284,81	177,66
285,03	114,17
285,24	144,38
285,46	172,54
285,68	107,52
285,89	182,27
286,11	116,73
286,32	227,32
286,54	202,75
286,76	154,62
286,97	221,18
287,19	161,28
287,40	152,06
287,62	187,90
287,84	169,47
288,05	167,42
288,27	152,06
288,48	151,04
288,70	143,87
288,92	141,31
289,13	133,63
289,35	176,64
289,56	168,45
289,78	171,01
289,99	189,44
290,21	178,69
290,43	142,33
290,64	147,97
290,86	182,78
291,07	167,42
291,29	198,14
291,51	157,69
291,72	228,35
291,94	205,82
292,15	177,66
292,37	177,66
292,58	198,65
292,80	205,82
293,01	142,85
293,23	192,51
293,45	217,08
293,66	150,53
293,88	237,56
294,09	44,54
294,31	181,25
294,52	159,23
294,74	149,50
294,96	154,11
295,17	122,88
295,39	192,00
295,60	172,03
295,82	142,85
296,03	173,57
296,25	133,63
296,46	182,27
296,68	175,10
296,89	124,41
297,11	77,82
297,32	229,37
297,54	226,81
297,76	147,97
297,97	113,15
298,19	196,60
298,40	215,04
298,62	151,55
298,83	186,37
299,05	211,45
299,26	116,22
299,48	159,23
299,69	218,62
299,91	76,29
300,12	242,68
300,34	231,42
300,55	194,56
300,77	214,01
300,98	88,57
301,20	166,91
301,41	82,43
301,63	156,67
301,84	142,85
302,06	219,13
302,28	91,13
302,49	146,94
302,71	287,74
302,92	22,53
303,14	136,19
303,35	226,81
303,57	122,37
303,78	169,47
304,00	189,44
304,21	100,86
304,43	143,36
304,64	198,65
304,86	97,79
305,07	163,84
305,29	162,81
305,50	141,82
305,71	219,64
305,93	159,74
306,14	263,68
306,36	178,17
306,57	221,69
306,79	175,61
307,00	74,24
307,22	170,49
307,43	97,79
307,65	207,36
307,86	174,59
308,08	177,66
308,29	214,01
308,51	144,89
308,72	224,76
308,94	186,37
309,15	237,05
309,37	178,17
309,58	107,01
309,80	144,38
310,01	202,24
310,22	124,41
310,44	160,25
310,65	203,77
310,87	214,52
311,08	221,69
311,30	60,42
311,51	219,13
311,73	141,31
311,94	152,06
312,16	137,73
312,37	185,85
312,58	239,61
312,80	136,19
313,01	201,21
313,23	161,79
313,44	168,45
313,66	126,97
313,87	226,30
314,09	54,27
314,30	145,92
314,51	166,40
314,73	157,69
314,94	146,94
315,16	193,53
315,37	232,44
315,59	120,83
315,80	150,01
316,01	188,93
316,23	189,44
316,44	181,76
316,66	214,52
316,87	217,60
317,09	209,92
317,30	176,13
317,51	165,37
317,73	206,33
317,94	129,53
318,16	197,63
318,37	96,77
318,58	43,52
318,80	210,43
319,01	116,73
319,23	247,80
319,44	119,29
319,66	133,12
319,87	186,88
320,08	186,37
320,30	156,16
320,51	188,93
320,73	120,32
320,94	192,51
321,15	168,96
321,37	165,37
321,58	147,97
321,80	231,42
322,01	140,29
322,22	119,29
322,44	138,75
322,65	179,71
322,86	179,71
323,08	236,03
323,29	178,69
323,51	150,01
323,72	138,75
323,93	237,56
324,15	217,08
324,36	157,69
324,58	206,33
324,79	231,42
325,00	186,37
325,22	174,08
325,43	153,09
325,64	158,72
325,86	147,97
326,07	110,59
326,28	211,96
326,50	163,84
326,71	126,46
326,93	109,57
327,14	163,84
327,35	83,45
327,57	217,08
327,78	174,59
327,99	241,15
328,21	117,25
328,42	231,93
328,63	246,78
328,85	202,24
329,06	141,82
329,27	126,97
329,49	163,84
329,70	111,61
329,91	228,35
330,13	122,37
330,34	236,54
330,56	67,07
330,77	131,07
330,98	224,25
331,20	179,20
331,41	276,99
331,62	173,05
331,84	185,34
332,05	156,67
332,26	265,72
332,48	224,76
332,69	206,33
332,90	209,40
333,11	159,74
333,33	133,12
333,54	185,34
333,75	121,34
333,97	99,33
334,18	181,76
334,39	208,89
334,61	177,15
334,82	250,36
335,03	137,73
335,25	189,44
335,46	180,73
335,67	211,96
335,89	176,64
336,10	152,57
336,31	174,59
336,53	149,50
336,74	220,67
336,95	216,57
337,16	148,48
337,38	151,55
337,59	293,37
337,80	118,78
338,02	167,42
338,23	236,03
338,44	182,27
338,65	192,00
338,87	196,61
339,08	206,33
339,29	216,57
339,51	190,97
339,72	162,30
339,93	265,72
340,14	204,28
340,36	209,40
340,57	211,96
340,78	139,26
341,00	94,72
341,21	183,29
341,42	280,57
341,63	173,05
341,85	118,27
342,06	146,94
342,27	174,59
342,49	234,49
342,70	209,92
342,91	250,88
343,12	236,54
343,34	217,60
343,55	177,15
343,76	220,16
343,97	181,25
344,19	234,49
344,40	167,93
344,61	214,01
344,82	176,64
345,04	157,69
345,25	204,80
345,46	174,08
345,67	190,46
345,89	197,63
346,10	204,28
346,31	125,95
346,52	114,17
346,74	74,24
346,95	245,76
347,16	109,57
347,37	135,17
347,59	178,69
347,80	173,05
348,01	205,31
348,22	199,16
348,43	185,85
348,65	144,38
348,86	184,32
349,07	262,14
349,28	152,06
349,50	155,65
349,71	225,79
349,92	132,09
350,13	188,93
350,34	124,41
350,56	130,56
350,77	192,51
350,98	172,03
351,19	185,85
351,41	247,80
351,62	233,98
351,83	88,57
352,04	192,51
352,25	186,37
352,47	224,25
352,68	281,60
352,89	115,20
353,10	184,32
353,31	172,03
353,53	171,52
353,74	170,49
353,95	159,23
354,16	249,34
354,37	231,93
354,59	195,58
354,80	205,82
355,01	143,87
355,22	137,21
355,43	137,73
355,65	89,60
355,86	272,38
356,07	194,56
356,28	162,81
356,49	114,17
356,70	195,58
356,92	219,13
357,13	135,17
357,34	197,63
357,55	219,64
357,76	241,66
357,98	103,93
358,19	209,92
358,40	180,73
358,61	152,57
358,82	180,22
359,03	171,52
359,25	226,30
359,46	253,44
359,67	190,97
359,88	143,87
360,09	186,37
360,30	126,97
360,51	177,66
360,73	214,01
360,94	169,47
361,15	152,57
361,36	108,54
361,57	167,42
361,78	122,88
362,00	119,81
362,21	221,18
362,42	257,53
362,63	150,53
362,84	167,93
363,05	122,88
363,26	148,48
363,48	192,00
363,69	211,45
363,90	154,11
364,11	124,41
364,32	115,71
364,53	158,21
364,74	116,73
364,95	167,42
365,17	152,57
365,38	234,49
365,59	228,86
365,80	206,84
366,01	114,69
366,22	167,42
366,43	43,52
366,64	188,41
366,86	145,92
367,07	153,09
367,28	176,13
367,49	195,58
367,70	250,88
367,91	111,61
368,12	112,13
368,33	138,75
368,54	260,09
368,76	159,23
368,97	184,83
369,18	117,25
369,39	149,50
369,60	108,54
369,81	148,48
370,02	180,22
370,23	168,45
370,44	105,47
370,65	119,81
370,87	101,37
371,08	239,10
371,29	187,39
371,50	180,22
371,71	200,70
371,92	173,05
372,13	195,58
372,34	144,89
372,55	112,64
372,76	197,63
372,97	168,96
373,18	261,12
373,40	157,69
373,61	153,60
373,82	152,57
374,03	188,93
374,24	224,25
374,45	126,46
374,66	249,34
374,87	256,51
375,08	161,28
375,29	167,93
375,50	192,51
375,71	130,05
375,92	199,16
376,13	118,27
376,34	187,90
376,56	145,41
376,77	195,58
376,98	183,29
377,19	190,97
377,40	157,18
377,61	253,44
377,82	165,37
378,03	221,18
378,24	182,27
378,45	218,11
378,66	121,34
378,87	133,63
379,08	143,36
379,29	222,20
379,50	221,69
379,71	81,41
379,92	119,81
380,13	142,33
380,34	158,21
380,55	207,36
380,76	207,87
380,97	263,68
381,18	215,04
381,39	161,79
381,60	245,76
381,81	122,37
382,02	195,58
382,24	155,13
382,45	142,33
382,66	177,66
382,87	216,57
383,08	203,77
383,29	147,45
383,50	246,27
383,71	164,35
383,92	171,52
384,13	82,43
384,34	207,87
384,55	133,63
384,76	187,90
384,97	165,89
385,18	156,67
385,39	98,81
385,60	130,56
385,81	162,30
386,02	227,32
386,23	201,72
386,44	91,13
386,65	184,32
386,86	126,46
387,07	195,58
387,28	193,53
387,49	223,74
387,70	131,07
387,91	216,57
388,12	241,66
388,32	103,42
388,53	176,13
388,74	156,16
388,95	131,58
389,16	96,25
389,37	143,87
389,58	187,90
389,79	207,36
390,00	168,45
390,21	184,32
390,42	121,85
390,63	206,33
390,84	104,45
391,05	267,77
391,26	273,92
391,47	130,05
391,68	155,13
391,89	214,01
392,10	197,63
392,31	183,81
392,52	192,00
392,73	51,20
392,94	263,68
393,15	121,85
393,36	179,20
393,57	194,05
393,78	183,81
393,98	194,56
394,19	161,28
394,40	278,01
394,61	153,09
394,82	237,56
395,03	183,81
395,24	217,60
395,45	103,42
395,66	177,15
395,87	94,21
396,08	149,50
396,29	245,24
396,50	167,93
396,71	183,81
396,92	144,38
397,12	210,94
397,33	172,03
397,54	126,97
397,75	180,73
397,96	193,02
398,17	203,77
398,38	130,05
398,59	229,88
398,80	69,12
399,01	261,63
399,22	196,61
399,43	152,06
399,63	252,92
399,84	208,38
400,05	212,48
400,26	169,47
400,47	224,25
400,68	217,08
400,89	207,36
401,10	174,08
401,31	158,21
401,52	168,45
401,72	206,84
401,93	140,29
402,14	204,28
402,35	266,75
402,56	201,72
402,77	198,14
402,98	227,84
403,19	232,44
403,40	207,87
403,60	261,12
403,81	318,46
404,02	209,92
404,23	240,12
404,44	241,66
404,65	233,98
404,86	285,18
405,07	193,02
405,27	196,61
405,48	228,35
405,69	213,50
405,90	308,73
406,11	299,52
406,32	280,06
406,53	256,00
406,74	310,27
406,94	264,19
407,15	260,09
407,36	242,17
407,57	248,32
407,78	312,83
407,99	290,81
408,20	310,27
408,40	328,70
408,61	313,85
408,82	359,42
409,03	312,83
409,24	334,33
409,45	327,67
409,65	352,25
409,86	360,44
410,07	307,20
410,28	385,53
410,49	399,35
410,70	441,85
410,90	421,88
411,11	393,21
411,32	415,74
411,53	478,20
411,74	457,21
411,95	482,81
412,15	538,10
412,36	394,75
412,57	477,69
412,78	536,57
412,99	523,26
413,20	479,22
413,40	477,69
413,61	568,31
413,82	547,32
414,03	565,75
414,24	646,13
414,44	638,97
414,65	606,20
414,86	568,31
415,07	717,81
415,28	728,05
415,48	710,65
415,69	657,40
415,90	771,57
416,11	779,25
416,32	778,23
416,53	764,40
416,73	896,50
416,94	830,45
417,15	865,78
417,36	913,39
417,56	893,43
417,77	891,38
417,98	913,39
418,19	1123,31
418,40	1018,86
418,60	1009,14
418,81	1074,16
419,02	1078,26
419,23	1087,47
419,44	1079,28
419,64	1134,06
419,85	1257,45
420,06	1208,30
420,27	1267,69
420,47	1235,44
420,68	1329,13
420,89	1352,68
421,10	1425,39
421,30	1475,56
421,51	1522,66
421,72	1513,45
421,93	1482,73
422,14	1578,47
422,34	1675,75
422,55	1639,91
422,76	1641,96
422,97	1688,04
423,17	1789,41
423,38	1762,28
423,59	1715,17
423,80	1881,06
424,00	1865,19
424,21	1995,75
424,42	1927,65
424,63	1964,00
424,83	1996,26
425,04	2180,06
425,25	2037,22
425,46	2309,60
425,66	2193,89
425,87	2297,31
426,08	2217,95
426,28	2497,50
426,49	2383,32
426,70	2541,02
426,91	2513,88
427,11	2584,02
427,32	2632,66
427,53	2620,89
427,74	2692,05
427,94	2704,34
428,15	2848,21
428,36	2853,84
428,56	2830,80
428,77	2949,08
428,98	2896,85
429,19	3058,13
429,39	3024,85
429,60	3057,62
429,81	3202,51
430,01	3234,77
430,22	3176,91
430,43	3293,13
430,64	3208,66
430,84	3221,45
431,05	3433,42
431,26	3461,58
431,46	3559,37
431,67	3558,35
431,88	3691,46
432,08	3745,22
432,29	3769,29
432,50	3697,10
432,70	3902,40
432,91	3899,84
433,12	4014,53
433,33	3983,81
433,53	3956,68
433,74	4155,84
433,95	4141,50
434,15	4040,13
434,36	4243,90
434,57	4237,76
434,77	4300,22
434,98	4435,90
435,19	4421,05
435,39	4505,02
435,60	4537,79
435,81	4792,25
436,01	4567,48
436,22	4710,33
436,43	4849,08
436,63	4866,49
436,84	4943,80
437,05	4834,74
437,25	4770,23
437,46	5027,25
437,67	5092,79
437,87	5068,21
438,08	5031,86
438,29	5245,36
438,49	5212,08
438,70	5248,94
438,91	5469,10
439,11	5582,76
439,32	5654,95
439,52	5583,27
439,73	5472,68
439,94	5584,30
440,14	5697,45
440,35	5824,94
440,56	5839,78
440,76	5822,89
440,97	6010,28
441,18	6067,11
441,38	5954,47
441,59	6160,29
441,79	6204,32
442,00	6395,29
442,21	6368,67
442,41	6504,86
442,62	6232,99
442,83	6476,19
443,03	6594,46
443,24	6696,35
443,44	6860,70
443,65	6958,49
443,86	6818,20
444,06	6944,66
444,27	7020,44
444,48	7171,99
444,68	7196,56
444,89	7353,74
445,09	7564,17
445,30	7396,75
445,51	7636,88
445,71	7706,51
445,92	7769,99
446,12	7923,59
446,33	7900,04
446,54	7999,88
446,74	8143,24
446,95	7859,59
447,15	8276,87
447,36	8332,16
447,57	8173,96
447,77	8407,94
447,98	8469,89
448,18	8442,75
448,39	8245,12
448,59	8738,68
448,80	8727,93
449,01	8784,25
449,21	8833,91
449,42	8869,24
449,62	9209,72
449,83	9079,67
450,04	9023,86
450,24	9426,80
450,45	9356,66
450,65	9310,07
450,86	9519,98
451,06	9624,94
451,27	9650,03
451,47	9296,75
451,68	9505,13
451,89	9589,10
452,09	9619,31
452,30	9428,85
452,50	9649,00
452,71	9894,25
452,91	9660,78
453,12	9748,84
453,33	9776,49
453,53	9562,99
453,74	9841,00
453,94	9608,05
454,15	9375,09
454,35	9369,97
454,56	9590,64
454,76	9749,36
454,97	9236,85
455,17	9362,29
455,38	9417,07
455,58	9296,75
455,79	9087,86
456,00	9222,00
456,20	9014,13
456,41	9139,57
456,61	8698,24
456,82	8638,33
457,02	8876,41
457,23	8794,49
457,43	8648,57
457,64	8283,52
457,84	8169,86
458,05	8258,95
458,25	8201,60
458,46	8067,97
458,66	7908,74
458,87	7850,89
459,07	7879,05
459,28	7716,75
459,48	7566,73
459,69	7416,72
459,89	7307,66
460,10	7391,12
460,30	7357,33
460,51	6981,53
460,71	6969,75
460,92	6821,78
461,12	6716,83
461,33	6633,37
461,53	6392,73
461,74	6181,28
461,94	6194,59
462,15	6193,06
462,35	6045,60
462,56	5844,39
462,76	5824,42
462,97	5802,41
463,17	5504,43
463,38	5514,67
463,58	5360,56
463,79	5496,75
463,99	5214,13
464,20	5241,26
464,40	5147,06
464,61	5012,40
464,81	5026,23
465,02	4837,81
465,22	4740,02
465,43	4597,18
465,63	4682,68
465,83	4509,12
466,04	4605,88
466,24	4401,08
466,45	4740,54
466,65	4432,32
466,86	4322,75
467,06	4116,42
467,27	4232,64
467,47	4337,09
467,68	4125,12
467,88	4057,03
468,08	4075,97
468,29	3987,91
468,49	4121,03
468,70	3989,96
468,90	3940,29
469,11	4030,91
469,31	3902,92
469,52	3850,18
469,72	4033,99
469,92	3811,27
470,13	3886,02
470,33	3815,37
470,54	3744,71
470,74	3826,12
470,95	3735,50
471,15	3737,03
471,35	3665,86
471,56	3652,04
471,76	3612,62
471,97	3600,84
472,17	3579,85
472,38	3528,65
472,58	3572,17
472,78	3617,74
472,99	3527,63
473,19	3521,99
473,40	3561,93
473,60	3415,50
473,80	3473,87
474,01	3508,68
474,21	3417,04
474,42	3503,05
474,62	3483,59
474,83	3361,74
475,03	3432,91
475,23	3352,52
475,44	3406,80
475,64	3456,97
475,85	3354,06
476,05	3305,42
476,25	3390,41
476,46	3363,79
476,66	3226,06
476,86	3271,12
477,07	3335,63
477,27	3359,18
477,48	3237,33
477,68	3171,79
477,88	3227,09
478,09	3078,10
478,29	3194,83
478,50	3122,64
478,70	3112,91
478,90	3077,59
479,11	3029,97
479,31	3173,33
479,51	3142,61
479,72	3099,60
479,92	2966,48
480,12	3055,06
480,33	3010,51
480,53	3028,43
480,74	2969,55
480,94	3053,52
481,14	3025,36
481,35	2968,53
481,55	3016,15
481,75	2875,86
481,96	2996,69
482,16	2929,11
482,36	3020,75
482,57	3070,93
482,77	2853,33
482,97	2864,60
483,18	2923,99
483,38	2953,68
483,58	2914,26
483,79	2869,72
483,99	3001,30
484,19	2911,19
484,40	2772,44
484,60	2903,00
484,80	2924,50
485,01	2998,74
485,21	2946,52
485,41	2879,96
485,62	2973,14
485,82	2838,48
486,02	2916,31
486,23	2948,56
486,43	2949,59
486,63	2926,55
486,84	3016,66
487,04	2926,04
487,24	2925,01
487,45	2956,24
487,65	2939,35
487,85	2965,46
488,06	3014,61
488,26	2938,84
488,46	2999,25
488,67	3027,41
488,87	3022,29
489,07	2979,79
489,27	3089,36
489,48	3084,24
489,68	3058,13
489,88	3160,53
490,09	3074,51
490,29	3053,01
490,49	3093,97
490,70	3158,99
490,90	3207,63
491,10	3131,34
491,30	3133,90
491,51	3086,29
491,71	3232,21
491,91	3202,51
492,12	3215,82
492,32	3173,33
492,52	3154,90
492,72	3188,69
492,93	3241,42
493,13	3208,14
493,33	3315,66
493,53	3343,82
493,74	3196,37
493,94	3385,29
494,14	3296,21
494,34	3322,83
494,55	3204,56
494,75	3337,68
494,95	3432,40
495,16	3483,08
495,36	3325,90
495,56	3428,81
495,76	3438,03
495,97	3439,05
496,17	3439,05
496,37	3494,35
496,57	3575,75
496,78	3530,19
496,98	3540,43
497,18	3528,65
497,38	3559,37
497,59	3633,10
497,79	3604,43
497,99	3733,45
498,19	3586,51
498,39	3782,60
498,60	3753,41
498,80	3774,92
499,00	3924,42
499,20	3980,74
499,41	3919,30
499,61	3947,46
499,81	3939,78
500,01	4120,00
500,22	4037,06
500,42	4047,81
500,62	4243,90
500,82	4247,49
501,02	4180,93
501,23	4278,21
501,43	4266,94
501,63	4341,18
501,83	4447,68
502,03	4474,81
502,24	4496,32
502,44	4512,70
502,64	4667,83
502,84	4663,74
503,05	4737,46
503,25	4839,35
503,45	4785,59
503,65	4972,47
503,85	4990,90
504,06	5037,49
504,26	5050,29
504,46	5250,48
504,66	5267,38
504,86	5394,35
505,06	5412,78
505,27	5476,27
505,47	5562,80
505,67	5789,10
505,87	5783,98
506,07	5946,28
506,28	6056,87
506,48	6014,88
506,68	6226,85
506,88	6230,94
507,08	6355,87
507,28	6527,39
507,49	6583,71
507,69	6709,15
507,89	6750,62
508,09	6957,46
508,29	7118,23
508,49	7202,19
508,70	7366,03
508,90	7486,86
509,10	7608,20
509,30	7644,56
509,50	7794,57
509,70	8040,33
509,91	8144,26
510,11	8312,19
510,31	8289,67
510,51	8311,68
510,71	8713,08
510,91	8789,37
511,11	8939,38
511,32	9120,63
511,52	9173,88
511,72	9490,80
511,92	9686,89
512,12	9771,88
512,32	9846,12
512,52	10138,47
512,73	10323,30
512,93	10488,67
513,13	10560,86
513,33	10796,38
513,53	11068,76
513,73	11352,40
513,93	11416,91
514,13	11564,37
514,34	11747,15
514,54	12064,58
514,74	12221,25
514,94	12439,87
515,14	12709,69
515,34	12929,85
515,54	13121,34
515,74	13398,32
515,94	13466,93
516,15	13703,98
516,35	14039,34
516,55	14156,58
516,75	14511,39
516,95	14701,86
517,15	14775,58
517,35	15011,10
517,55	15288,09
517,75	15756,56
517,95	15799,05
518,16	16145,16
518,36	16406,28
518,56	16535,30
518,76	17097,47
518,96	17183,99
519,16	17281,27
519,36	17679,60
519,56	17964,27
519,76	18143,47
519,96	18290,41
520,16	18616,55
520,37	18626,28
520,57	19310,81
520,77	19537,11
520,97	19844,31
521,17	19854,55
521,37	20466,38
521,57	20614,34
521,77	20978,37
521,97	21233,34
522,17	21529,27
522,37	21961,90
522,57	22006,45
522,77	22248,62
522,97	22753,44
523,17	22666,41
523,37	23013,54
523,58	23383,71
523,78	23510,17
523,98	24138,38
524,18	24192,14
524,38	24685,70
524,58	24721,54
524,78	24799,88
524,98	25302,65
525,18	25478,27
525,38	25861,24
525,58	25963,12
525,78	26508,91
525,98	26876,52
526,18	27257,95
526,38	27372,64
526,58	27704,92
526,78	27849,82
526,98	28056,15
527,18	28428,88
527,38	28890,70
527,58	29070,92
527,78	29658,68
527,98	29636,67
528,18	29801,53
528,38	30213,17
528,58	30319,15
528,78	30819,37
528,98	30937,64
529,18	31100,45
529,38	31256,61
529,58	31669,28
529,78	31811,61
529,98	31969,82
530,18	32666,13
530,38	32699,92
530,58	32904,71
530,78	33297,92
530,98	33180,17
531,18	33743,87
531,38	33815,04
531,58	34326,52
531,78	34505,20
531,98	34764,27
532,18	34980,84
532,38	35399,65
532,58	35531,23
532,78	35446,76
532,98	36150,23
533,18	36068,31
533,38	36405,20
533,58	37170,63
533,78	37182,41
533,98	37632,96
534,18	37745,09
534,38	37926,33
534,58	38320,57
534,78	38454,20
534,98	38617,52
535,18	38665,65
535,38	38976,94
535,58	38938,54
535,78	39404,97
535,98	39731,11
536,18	39909,79
536,38	39918,49
536,58	40215,96
536,78	40099,74
536,98	40434,58
537,18	40789,91
537,38	40545,69
537,58	40754,07
537,78	41324,94
537,98	41446,79
538,17	41599,88
538,37	41748,35
538,57	42278,27
538,77	42059,13
538,97	42315,13
539,17	42662,77
539,37	42938,22
539,57	43067,25
539,77	43352,94
539,97	43272,56
540,17	43426,67
540,37	43509,10
540,57	43739,49
540,77	44112,22
540,97	44115,29
541,16	43829,09
541,36	44356,96
541,56	44143,97
541,76	44772,18
541,96	45270,86
542,16	44850,00
542,36	45448,01
542,56	45228,88
542,76	45966,66
542,96	45949,25
543,16	46089,02
543,36	45797,19
543,55	45780,29
543,75	45927,75
543,95	45870,92
544,15	46321,47
544,35	46123,84
544,55	46658,36
544,75	46612,28
544,95	46930,23
545,15	46634,30
545,35	47269,17
545,54	47504,17
545,74	47767,34
545,94	47339,82
546,14	47594,28
546,34	47487,28
546,54	47422,25
546,74	48074,02
546,94	48130,85
547,14	48020,26
547,33	48463,13
547,53	48060,19
547,73	48392,48
547,93	48615,71
548,13	48167,20
548,33	48342,81
548,53	48754,46
548,72	48496,41
548,92	48845,08
549,12	49044,24
549,32	48737,56
549,52	48828,69
549,72	48698,65
549,92	48973,08
550,12	48887,57
550,31	49689,87
550,51	48512,28
550,71	49795,34
550,91	50041,09
551,11	49405,20
551,31	49682,19
551,50	49267,98
551,70	49507,08
551,90	49933,57
552,10	49878,79
552,30	49907,46
552,50	49834,76
552,70	49891,59
552,89	49831,69
553,09	50188,03
553,29	50468,61
553,49	50288,90
553,69	50572,54
553,88	50378,50
554,08	50509,57
554,28	50573,05
554,48	50321,15
554,68	50391,81
554,88	50203,39
555,07	50435,84
555,27	50401,53
555,47	50566,40
555,67	50839,80
555,87	51220,21
556,06	50939,64
556,26	51096,82
556,46	51277,55
556,66	51407,60
556,86	51227,89
557,06	51437,30
557,25	51780,84
557,45	51005,17
557,65	51457,26
557,85	51581,16
558,05	51532,53
558,24	51587,82
558,44	51917,54
558,64	52070,63
558,84	51905,26
559,03	51464,43
559,23	51884,26
559,43	52152,04
559,63	51931,37
559,83	51455,73
560,02	51254,00
560,22	51796,71
560,42	52182,24
560,62	52098,28
560,82	51311,35
561,01	51453,68
561,21	51095,80
561,41	51600,11
561,61	51674,86
561,80	51695,85
562,00	51967,72
562,20	52096,23
562,40	52716,25
562,59	52285,67
562,79	52741,85
562,99	52350,69
563,19	52439,26
563,38	52117,22
563,58	52211,43
563,78	52510,43
563,98	52902,62
564,17	52338,40
564,37	52457,70
564,57	52168,42
564,77	52184,80
564,96	52145,38
565,16	52279,52
565,36	52253,41
565,56	52082,92
565,75	51680,49
565,95	51866,86
566,15	52070,12
566,35	52559,07
566,54	52606,69
566,74	52879,07
566,94	52284,64
567,14	51863,27
567,33	51985,13
567,53	52312,80
567,73	52175,59
567,92	51981,54
568,12	52516,57
568,32	52615,39
568,52	52430,56
568,71	51891,43
568,91	52474,59
569,11	52644,06
569,30	51861,22
569,50	52446,43
569,70	52269,79
569,90	52286,18
570,09	52324,58
570,29	52493,53
570,49	52739,29
570,68	52536,03
570,88	52549,85
571,08	52807,39
571,27	52505,82
571,47	52338,40
571,67	52388,06
571,87	52345,57
572,06	52157,67
572,26	52809,95
572,46	52296,42
572,65	51955,94
572,85	51759,34
573,05	52243,17
573,24	51890,41
573,44	51964,65
573,64	52097,25
573,83	51902,18
574,03	51846,38
574,23	52453,60
574,42	51975,40
574,62	52673,24
574,82	52031,21
575,01	51281,65
575,21	51799,27
575,41	52504,80
575,60	51779,31
575,80	52186,85
576,00	52075,24
576,19	51997,41
576,39	51699,44
576,59	52118,24
576,78	51642,09
576,98	51589,87
577,18	52231,40
577,37	52040,42
577,57	52025,06
577,77	51886,82
577,96	51703,53
578,16	51983,59
578,35	51576,05
578,55	51237,62
578,75	51523,31
578,94	50985,21
579,14	52007,65
579,34	51486,45
579,53	51476,21
579,73	51177,20
579,93	50993,91
580,12	50924,79
580,32	50737,40
580,51	51077,36
580,71	51351,79
580,91	51222,77
581,10	51445,49
581,30	51358,45
581,50	51314,93
581,69	51322,10
581,89	51036,41
582,08	51169,01
582,28	50895,61
582,48	51298,55
582,67	51172,08
582,87	51128,05
583,06	50846,46
583,26	50912,50
583,46	50483,45
583,65	49882,37
583,85	50042,12
584,04	50157,31
584,24	50008,84
584,44	50388,74
584,63	50399,49
584,83	50259,71
585,02	49624,33
585,22	49979,14
585,42	49847,56
585,61	49729,80
585,81	49725,71
586,00	49828,10
586,20	49917,70
586,39	49650,44
586,59	49947,40
586,79	50505,98
586,98	49566,99
587,18	49192,21
587,37	49407,76
587,57	48643,35
587,76	48904,98
587,96	49302,80
588,16	49360,65
588,35	49081,62
588,55	48953,11
588,74	49602,32
588,94	49063,19
589,13	48954,65
589,33	48529,18
589,52	48642,84
589,72	48624,92
589,92	48842,01
590,11	48749,34
590,31	48644,89
590,50	48611,10
590,70	48348,45
590,89	47945,51
591,09	48003,88
591,28	47691,05
591,48	47755,05
591,67	47487,79
591,87	47711,02
592,06	47490,86
592,26	47542,06
592,46	47474,99
592,65	47613,74
592,85	46887,73
593,04	47397,16
593,24	46937,40
593,43	46882,61
593,63	47107,38
593,82	47142,70
594,02	46681,91
594,21	46908,72
594,41	46312,25
594,60	46133,57
594,80	46001,47
594,99	45502,28
595,19	45409,10
595,38	45873,48
595,58	45588,30
595,77	45495,11
595,97	45679,94
596,16	45448,01
596,36	45274,96
596,55	45430,60
596,75	45583,69
596,94	45113,68
597,14	45265,23
597,33	45609,29
597,53	45373,26
597,72	45388,62
597,92	45044,05
598,11	44860,76
598,31	44608,34
598,50	44457,31
598,70	44269,92
598,89	44214,62
599,09	43880,80
599,28	44335,45
599,48	44316,51
599,67	44420,44
599,87	44075,87
600,06	44014,43
600,26	43614,57
600,45	43565,42
600,64	43958,63
600,84	44179,29
601,03	44019,04
601,23	43342,19
601,42	43504,49
601,62	43303,28
601,81	43403,63
602,01	43671,91
602,20	43411,82
602,40	43159,41
602,59	42396,54
602,78	42533,24
602,98	42219,39
603,17	42546,55
603,37	42478,46
603,56	42398,07
603,76	42104,19
603,95	42332,54
604,15	42018,17
604,34	42243,96
604,53	41816,45
604,73	42162,04
604,92	41516,93
605,12	41467,27
605,31	41421,19
605,51	41122,70
605,70	41182,60
605,89	41142,67
606,09	41011,60
606,28	41005,97
606,48	40996,24
606,67	40821,65
606,87	41264,52
607,06	40975,76
607,25	40495,51
607,45	40518,55
607,64	40198,55
607,84	40185,24
608,03	39898,53
608,22	40044,44
608,42	40002,97
608,61	39599,01
608,81	39533,99
609,00	39560,61
609,19	39546,28
609,39	39372,20
609,58	39695,27
609,78	39864,74
609,97	39261,10
610,16	39154,60
610,36	38965,17
610,55	38587,32
610,75	38767,54
610,94	38667,70
611,13	38693,81
611,33	38763,44
611,52	38661,04
611,71	37943,23
611,91	38388,66
612,10	38558,64
612,30	38362,55
612,49	38076,35
612,68	38224,82
612,88	37916,61
613,07	37811,65
613,26	38020,54
613,46	37582,27
613,65	37447,62
613,84	37793,73
614,04	37376,45
614,23	37030,35
614,43	37191,11
614,62	37180,87
614,81	37247,43
615,01	37468,10
615,20	37366,73
615,39	37095,37
615,59	37095,88
615,78	36845,52
615,97	37061,58
616,17	36997,07
616,36	36774,35
616,55	37019,60
616,75	37452,74
616,94	37147,59
617,13	36915,15
617,33	36697,55
617,52	36717,01
617,71	36283,86
617,91	36616,66
618,10	36370,39
618,29	36164,06
618,49	36250,58
618,68	36185,05
618,87	35864,03
619,07	36085,21
619,26	35985,88
619,45	36322,77
619,65	35795,93
619,84	35823,58
620,03	36068,83
620,22	36352,47
620,42	35785,18
620,61	35620,83
620,80	35799,01
621,00	35774,94
621,19	35899,87
621,38	35580,90
621,58	35516,39
621,77	35528,16
621,96	35855,84
622,15	36022,23
622,35	35694,05
622,54	35671,52
622,73	35782,11
622,93	35480,03
623,12	35360,74
623,31	35528,16
623,50	35454,95
623,70	35490,79
623,89	35251,69
624,08	35018,22
624,28	35450,85
624,47	35427,81
624,66	35471,33
624,85	35825,63
625,05	35509,22
625,24	35594,21
625,43	35477,47
625,62	35231,72
625,82	35277,29
626,01	34999,79
626,20	35010,54
626,39	35054,57
626,59	35151,34
626,78	35179,50
626,97	34902,51
627,17	34766,32
627,36	34441,71
627,55	34519,03
627,74	34503,15
627,93	34612,21
628,13	34268,15
628,32	34176,50
628,51	34239,99
628,70	34375,16
628,90	34363,89
629,09	34310,64
629,28	34627,57
629,47	34571,76
629,67	34424,82
629,86	34510,83
630,05	34284,53
630,24	33915,39
630,44	33801,72
630,63	33886,20
630,82	33667,07
631,01	33690,62
631,20	33402,88
631,40	33556,48
631,59	33280,00
631,78	33060,87
631,97	32993,80
632,16	33069,06
632,36	33026,57
632,55	32895,50
632,74	32688,65
632,93	32366,10
633,13	32118,81
633,32	32177,68
633,51	32057,88
633,70	32342,03
633,89	32123,41
634,09	31957,53
634,28	31576,09
634,47	31770,14
634,66	31684,64
634,85	31527,97
635,04	31379,49
635,24	31019,05
635,43	31107,62
635,62	31164,45
635,81	31198,24
636,00	30796,84
636,20	31124,52
636,39	30817,32
636,58	30467,63
636,77	30652,97
636,96	30507,05
637,15	30459,44
637,35	30318,64
637,54	30239,28
637,73	30429,74
637,92	30308,91
638,11	30189,62
638,30	30139,96
638,50	29784,12
638,69	30042,17
638,88	29867,06
639,07	29678,65
639,26	29815,87
639,45	29500,48
639,64	29515,84
639,84	29498,94
640,03	28912,20
640,22	28748,36
640,41	28941,38
640,60	28414,03
640,79	28644,43
640,98	28488,78
641,18	28438,09
641,37	28214,87
641,56	27755,61
641,75	27888,21
641,94	27533,40
642,13	27569,24
642,32	27439,71
642,52	27520,09
642,71	27660,89
642,90	27496,54
643,09	27374,69
643,28	27300,45
643,47	26880,61
643,66	26855,01
643,85	26360,43
644,04	26831,46
644,24	26630,76
644,43	26511,98
644,62	26223,73
644,81	26142,32
645,00	26041,46
645,19	26009,20
645,38	25764,98
645,57	25761,91
645,76	25424,51
645,96	25302,14
646,15	25205,38
646,34	25356,93
646,53	25550,97
646,72	25545,85
646,91	25197,18
647,10	24830,09
647,29	25038,47
647,48	25015,94
647,67	24743,05
647,86	24690,82
648,05	24500,87
648,25	24294,54
648,44	24353,42
648,63	24338,06
648,82	24110,74
649,01	24001,68
649,20	23845,52
649,39	23653,53
649,58	23566,49
649,77	23504,54
649,96	23366,81
650,15	23284,89
650,34	22922,91
650,53	22995,11
650,72	22762,66
650,91	22678,18
651,11	22738,60
651,30	22579,37
651,49	22635,17
651,68	22780,58
651,87	22667,94
652,06	22729,38
652,25	22650,02
652,44	22448,81
652,63	22345,39
652,82	22204,59
653,01	22030,51
653,20	21712,05
653,39	21687,48
653,58	21524,15
653,77	21384,38
653,96	21278,40
654,15	21312,70
654,34	21429,43
654,53	21521,59
654,72	21279,93
654,91	20985,02
655,10	20958,40
655,29	20857,03
655,48	20961,47
655,67	20666,05
655,86	20665,03
656,05	20408,01
656,24	20237,00
656,43	20352,20
656,62	20160,20
656,81	19987,66
657,00	19915,98
657,19	19736,79
657,38	19749,07
657,57	19633,88
657,76	19487,96
657,95	19488,98
658,14	19308,76
658,33	19032,29
658,52	18983,13
658,71	19198,68
658,90	19198,17
659,09	19069,66
659,28	18807,52
659,47	18975,97
659,66	18762,98
659,85	18617,57
660,04	18579,68
660,23	18668,77
660,42	18485,99
660,61	18598,12
660,80	18391,27
660,99	18323,18
661,18	18336,49
661,37	18188,01
661,56	18057,96
661,75	17908,46
661,94	17907,95
662,13	17919,73
662,32	17485,05
662,51	17578,74
662,70	17692,40
662,89	17478,39
663,08	17455,35
663,27	17408,76
663,46	17103,61
663,65	16948,48
663,83	16842,50
664,02	16835,84
664,21	16753,41
664,40	16834,82
664,59	16727,81
664,78	16901,89
664,97	16916,73
665,16	16530,69
665,35	16580,87
665,54	16443,65
665,73	16630,53
665,92	16595,71
666,11	16267,53
666,30	16650,50
666,49	16363,27
666,67	16162,57
666,86	16132,87
667,05	15977,74
667,24	15847,18
667,43	15535,89
667,62	15636,24
667,81	15483,67
668,00	15535,38
668,19	15302,93
668,38	15273,75
668,57	15297,81
668,76	15187,74
668,94	15160,60
669,13	15166,74
669,32	15097,63
669,51	14993,69
669,70	14933,79
669,89	15023,90
670,08	14931,74
670,27	14875,93
670,46	14875,42
670,64	14621,98
670,83	14719,26
671,02	14531,36
671,21	14527,27
671,40	14416,16
671,59	14422,82
671,78	14263,08
671,97	14188,33
672,16	13951,28
672,34	13926,19
672,53	13990,19
672,72	13842,73
672,91	13948,20
673,10	13889,84
673,29	13874,99
673,48	13570,86
673,66	13462,83
673,85	13584,69
674,04	13566,77
674,23	13453,11
674,42	13330,74
674,61	13636,40
674,80	13152,06
674,98	13151,03
675,17	13194,55
675,36	12958,01
675,55	13004,60
675,74	13058,87
675,93	13061,94
676,12	12978,49
676,30	12921,15
676,49	12856,12
676,68	12880,70
676,87	12801,85
677,06	12666,17
677,25	12653,37
677,43	12609,86
677,62	12561,22
677,81	12311,36
678,00	12243,27
678,19	12224,33
678,37	12113,22
678,56	12095,30
678,75	12208,45
678,94	11999,56
679,13	11994,44
679,32	12048,71
679,50	11985,23
679,69	12069,70
679,88	11789,64
680,07	11700,05
680,26	11704,14
680,44	11718,99
680,63	11615,57
680,82	11573,58
681,01	11518,29
681,20	11472,21
681,38	11482,45
681,57	11306,84
681,76	11442,00
681,95	11313,49
682,14	11205,97
682,32	11105,62
682,51	10979,16
682,70	11006,81
682,89	10920,28
683,07	10831,19
683,26	10686,81
683,45	10700,12
683,64	10764,12
683,83	10666,85
684,01	10614,62
684,20	10627,42
684,39	10562,40
684,58	10416,99
684,76	10360,16
684,95	10262,37
685,14	10367,84
685,33	10172,26
685,52	10112,87
685,70	10157,92
685,89	9937,26
686,08	10132,84
686,27	9913,70
686,45	9935,21
686,64	9933,16
686,83	9935,21
687,02	9899,88
687,20	9949,54
687,39	9669,48
687,58	9580,40
687,76	9513,84
687,95	9716,08
688,14	9662,32
688,33	9625,45
688,51	9697,64
688,70	9537,39
688,89	9546,61
689,08	9483,63
689,26	9390,45
689,45	9279,35
689,64	9280,37
689,83	9197,43
690,01	9172,85
690,20	9266,03
690,39	9143,67
690,57	9267,57
690,76	9082,74
690,95	8996,73
691,14	8942,97
691,32	8909,69
691,51	8817,53
691,70	8850,81
691,88	8830,84
692,07	8757,11
692,26	8669,05
692,44	8825,72
692,63	8769,91
692,82	8493,95
693,01	8442,24
693,19	8409,47
693,38	8358,78
693,57	8426,37
693,75	8399,74
693,94	8267,14
694,13	8256,39
694,31	8206,21
694,50	8302,47
694,69	8215,94
694,87	8226,18
695,06	8194,95
695,25	8152,96
695,43	8162,69
695,62	8009,09
695,81	8033,16
695,99	8012,68
696,18	8006,02
696,37	7906,70
696,55	7922,06
696,74	7906,18
696,93	7926,66
697,11	7725,96
697,30	7579,53
697,49	7658,38
697,67	7686,54
697,86	7560,59
698,05	7540,11
698,23	7418,25
698,42	7510,93
698,61	7496,59
698,79	7382,42
698,98	7403,92
699,17	7323,02
699,35	7243,15
699,54	7246,23
699,72	7076,24
699,91	7116,18
700,10	7081,88
700,28	7127,44
700,47	7178,13
700,66	7014,80
700,84	7218,58
701,03	6983,06
701,21	6991,77
701,40	6890,39
701,59	6816,66
701,77	6823,83
701,96	6826,39
702,15	6782,36
702,33	6648,22
702,52	6714,78
702,70	6760,86
702,89	6759,32
703,08	6783,38
703,26	6664,60
703,45	6622,11
703,63	6741,91
703,82	6648,73
704,01	6634,91
704,19	6619,55
704,38	6538,14
704,56	6469,02
704,75	6450,08
704,94	6389,66
705,12	6290,85
705,31	6253,47
705,49	6058,40
705,68	6017,44
705,86	6196,13
706,05	6026,15
706,24	6143,91
706,42	6165,41
706,61	6010,28
706,79	6110,63
706,98	5966,24
707,17	6061,99
707,35	6056,87
707,54	5913,51
707,72	5943,21
707,91	5846,95
708,09	5833,13
708,28	5807,02
708,46	5776,81
708,65	5774,25
708,84	5733,29
709,02	5687,21
709,21	5751,21
709,39	5620,65
709,58	5634,99
709,76	5488,56
709,95	5533,10
710,13	5447,08
710,32	5415,34
710,50	5444,01
710,69	5460,40
710,88	5421,49
711,06	5388,72
711,25	5364,14
711,43	5285,81
711,62	5274,03
711,80	5252,53
711,99	5114,80
712,17	5176,75
712,36	5265,84
712,54	5137,33
712,73	5151,15
712,91	5171,63
713,10	5220,78
713,28	5052,34
713,47	4957,11
713,65	5007,80
713,84	4944,82
714,02	4921,27
714,21	4927,41
714,39	4949,94
714,58	4756,92
714,76	4830,65
714,95	4847,54
715,13	4757,43
715,32	4781,50
715,50	4710,84
715,69	4821,94
715,87	4621,24
716,06	4667,83
716,24	4586,94
716,43	4593,08
716,61	4613,05
716,80	4651,45
716,98	4432,83
717,17	4498,36
717,35	4568,51
717,54	4374,97
717,72	4420,03
717,91	4331,45
718,09	4351,93
718,28	4372,93
718,46	4378,05
718,65	4383,17
718,83	4331,97
719,01	4339,13
719,20	4240,83
719,38	4329,41
719,57	4224,96
719,75	4076,99
719,94	4131,26
720,12	4135,87
720,31	4193,73
720,49	3991,49
720,68	4025,28
720,86	4016,58
721,04	4081,09
721,23	3993,54
721,41	3898,82
721,60	3954,12
721,78	3883,46
721,97	3856,33
722,15	3850,69
722,34	3898,82
722,52	3950,02
722,70	3844,55
722,89	3791,81
723,07	3816,39
723,26	3712,46
723,44	3637,70
723,63	3656,65
723,81	3567,05
723,99	3636,68
724,18	3625,42
724,36	3613,13
724,55	3600,33
724,73	3519,95
724,91	3514,83
725,10	3520,46
725,28	3420,11
725,47	3508,68
725,65	3429,32
725,83	3395,53
726,02	3382,73
726,20	3417,55
726,39	3282,38
726,57	3369,93
726,75	3338,70
726,94	3360,72
727,12	3449,80
727,31	3327,95
727,49	3327,44
727,67	3299,79
727,86	3282,89
728,04	3244,49
728,23	3280,33
728,41	3182,03
728,59	3214,29
728,78	3263,95
728,96	3190,74
729,14	3275,73
729,33	3210,70
729,51	3140,05
729,69	3207,63
729,88	3109,84
730,06	3130,83
730,25	3134,42
730,43	3088,34
730,61	3149,78
730,80	3056,08
730,98	3032,02
731,16	3069,39
731,35	2940,88
731,53	2916,82
731,71	2924,50
731,90	2921,43
732,08	2993,62
732,26	2874,32
732,45	2781,65
732,63	2971,09
732,81	2862,04
733,00	2877,40
733,18	2878,42
733,36	2786,26
733,55	2843,60
733,73	2772,44
733,91	2644,44
734,10	2645,46
734,28	2705,37
734,46	2714,58
734,65	2687,45
734,83	2722,26
735,01	2690,01
735,20	2646,49
735,38	2559,45
735,56	2553,82
735,75	2599,38
735,93	2532,83
736,11	2698,20
736,30	2591,19
736,48	2535,90
736,66	2564,06
736,84	2610,14
737,03	2511,83
737,21	2481,11
737,39	2415,58
737,58	2537,95
737,76	2370,01
737,94	2332,64
738,12	2436,06
738,31	2510,30
738,49	2393,56
738,67	2332,12
738,86	2436,06
739,04	2395,61
739,22	2413,53
739,40	2384,35
739,59	2264,54
739,77	2278,88
739,95	2312,67
740,14	2274,27
740,32	2251,74
740,50	2247,65
740,68	2238,94
740,87	2232,29
741,05	2351,07
741,23	2165,21
741,41	2143,71
741,60	2257,37
741,78	2196,96
741,96	2217,95
742,14	2078,18
742,33	2062,82
742,51	2090,98
742,69	2141,66
742,87	2059,74
743,06	2095,07
743,24	1974,75
743,42	2115,04
743,60	2044,90
743,79	2017,25
743,97	2059,74
744,15	1966,05
744,33	1969,12
744,52	1896,42
744,70	1967,07
744,88	1982,95
745,06	1982,43
745,24	1924,58
745,43	1950,69
745,61	1873,38
745,79	1835,49
745,97	1952,23
746,16	1956,83
746,34	1938,91
746,52	1977,83
746,70	1848,80
746,88	1914,85
747,07	1833,44
747,25	1769,45
747,43	1818,60
747,61	1816,55
747,79	1868,77
747,98	1760,23
748,16	1800,68
748,34	1807,84
748,52	1662,95
748,70	1689,57
748,89	1809,89
749,07	1678,31
749,25	1752,04
749,43	1751,01
749,61	1800,68
749,79	1831,91
749,98	1807,33
750,16	1641,96
750,34	1668,58
750,52	1733,09
750,70	1759,21
750,88	1776,61
751,07	1740,26
751,25	1628,65
751,43	1659,88
751,61	1591,27
751,79	1666,02
751,97	1702,89
752,16	1623,02
752,34	1646,05
752,52	1613,29
752,70	1715,17
752,88	1608,68
753,06	1714,66
753,25	1584,10
753,43	1561,58
753,61	1603,05
753,79	1469,93
753,97	1598,44
754,15	1562,60
754,33	1628,14
754,52	1665,51
754,70	1504,75
754,88	1570,79
755,06	1564,65
755,24	1564,14
755,42	1526,25
755,60	1562,60
755,78	1600,49
755,97	1553,90
756,15	1555,43
756,33	1563,62
756,51	1567,72
756,69	1456,11
756,87	1503,21
757,05	1512,42
757,23	1489,90
757,41	1512,42
757,60	1424,87
757,78	1495,53
757,96	1440,23
758,14	1430,51
758,32	1415,15
758,50	1518,57
758,68	1540,58
758,86	1526,76
759,04	1465,83
759,22	1421,29
759,41	1414,12
759,59	1462,76
759,77	1505,26
759,95	1333,23
760,13	1427,95
760,31	1477,61
760,49	1459,69
760,67	1421,80
760,85	1362,92
761,03	1485,80
761,21	1364,97
761,39	1396,20
761,57	1428,97
761,76	1466,35
761,94	1455,08
762,12	1396,20
762,30	1376,23
762,48	1414,12
762,66	1347,05
762,84	1385,96
763,02	1380,84
763,20	1392,11
763,38	1366,51
763,56	1314,80
763,74	1342,96
763,92	1353,71
764,10	1389,55
764,28	1366,51
764,46	1330,67
764,64	1417,19
764,82	1376,75
765,00	1301,48
765,19	1217,52
765,37	1267,18
765,55	1245,16
765,73	1257,96
765,91	1321,45
766,09	1259,50
766,27	1276,40
766,45	1218,03
766,63	1189,87
766,81	1276,40
766,99	1231,34
767,17	1156,59
767,35	1233,90
767,53	1222,13
767,71	1255,92
767,89	1227,25
768,07	1229,81
768,25	1207,28
768,43	1221,61
768,61	1150,45
768,79	1196,53
768,97	1166,32
769,15	1137,13
769,33	1121,26
769,51	1134,57
769,69	1093,10
769,87	1140,72
770,05	1223,66
770,23	1219,57
770,41	1184,75
770,59	1138,16
770,77	1097,20
770,95	1154,03
771,13	1116,14
771,31	1096,69
771,49	1076,72
771,67	1072,62
771,85	1164,27
772,03	1082,35
772,21	1058,29
772,38	1079,79
772,56	1089,01
772,74	1074,67
772,92	1040,37
773,10	1064,43
773,28	1132,01
773,46	980,47
773,64	1010,16
773,82	1032,69
774,00	1038,32
774,18	1104,88
774,36	962,55
774,54	988,14
774,72	1013,23
774,90	937,97
775,08	958,45
775,26	1128,43
775,44	1016,82
775,62	991,22
775,80	968,69
775,97	1029,62
776,15	1019,38
776,33	1040,37
776,51	931,31
776,69	959,47
776,87	997,36
777,05	996,34
777,23	950,77
777,41	854,51
777,59	873,46
777,77	830,45
777,95	948,72
778,13	858,10
778,30	942,58
778,48	991,22
778,66	933,36
778,84	824,82
779,02	855,03
779,20	882,67
779,38	973,30
779,56	930,80
779,74	855,54
779,92	811,51
780,09	839,16
780,27	888,31
780,45	751,09
780,63	871,41
780,81	845,30
780,99	861,68
781,17	855,03
781,35	816,12
781,52	846,32
781,70	852,98
781,88	826,87
782,06	888,31
782,24	828,92
782,42	816,63
782,60	776,69
782,78	778,23
782,95	829,94
783,13	751,60
783,31	778,74
783,49	768,50
783,67	749,04
783,85	759,80
784,03	741,36
784,20	696,31
784,38	736,24
784,56	723,44
784,74	671,22
784,92	701,43
785,10	743,92
785,28	764,92
785,45	793,08
785,63	778,74
785,81	732,15
785,99	722,42
786,17	797,68
786,35	699,89
786,52	705,01
786,70	706,55
786,88	645,11
787,06	684,53
787,24	743,41
787,41	657,91
787,59	676,85
787,77	634,36
787,95	587,77
788,13	645,11
788,31	618,49
788,48	653,81
788,66	569,85
788,84	605,17
789,02	664,05
789,20	662,52
789,37	612,34
789,55	761,33
789,73	649,21
789,91	678,39
790,09	634,36
790,26	556,02
790,44	572,41
790,62	569,34
790,80	663,54
790,98	625,14
791,15	665,59
791,33	626,17
791,51	629,24
791,69	578,04
791,86	657,91
792,04	625,65
792,22	587,77
792,40	551,93
792,58	590,33
792,75	562,17
792,93	665,59
793,11	523,26
793,29	579,06
793,46	573,43
793,64	601,08
793,82	512,50
794,00	526,84
794,17	648,69
794,35	530,42
794,53	522,74
794,71	507,90
794,88	527,35
795,06	494,58
795,24	568,82
795,42	569,34
795,59	501,24
795,77	550,39
795,95	504,82
796,13	521,21
796,30	540,15
796,48	561,14
796,66	547,83
796,83	597,49
797,01	535,54
797,19	429,56
797,37	530,94
797,54	466,94
797,72	463,35
797,90	578,04
798,08	402,43
798,25	444,92
798,43	532,98
798,61	498,68
798,78	529,40
798,96	498,68
799,14	425,98
799,31	505,85
799,49	455,67
799,67	492,02
799,85	553,98
800,02	523,26
800,20	402,94
800,38	365,05
800,55	493,56
800,73	414,20
800,91	446,97
801,08	473,08
801,26	477,18
801,44	459,77
801,61	474,10
801,79	452,09
801,97	440,31
802,15	407,03
802,32	395,26
802,50	450,55
802,68	432,12
802,85	497,14
803,03	482,81
803,21	435,71
803,38	483,32
803,56	438,78
803,74	335,87
803,91	421,88
804,09	404,47
804,26	480,76
804,44	435,71
804,62	430,59
804,79	474,10
804,97	393,21
805,15	434,68
805,32	356,35
805,50	470,52
805,68	377,85
805,85	380,41
806,03	393,72
806,21	404,47
806,38	321,53
806,56	411,64
806,73	466,42
806,91	459,26
807,09	355,83
807,26	408,57
807,44	458,23
807,62	381,43
807,79	421,37
807,97	399,87
808,14	385,53
808,32	422,39
808,50	345,08
808,67	330,75
808,85	393,72
809,02	467,96
809,20	337,91
809,38	332,79
809,55	274,94
809,73	390,65
809,90	382,97
810,08	453,63
810,26	410,62
810,43	355,83
810,61	357,37
810,78	347,64
810,96	306,68
811,14	337,40
811,31	238,08
811,49	253,44
811,66	333,31
811,84	312,32
812,02	326,14
812,19	400,89
812,37	352,25
812,54	436,73
812,72	394,75
812,89	364,03
813,07	328,19
813,25	406,52
813,42	389,63
813,60	399,87
813,77	462,84
813,95	349,69
814,12	279,55
814,30	287,74
814,47	317,95
814,65	332,79
814,83	322,56
815,00	356,35
815,18	375,29
815,35	333,82
815,53	408,06
815,70	307,71
815,88	302,59
816,05	355,32
816,23	282,62
816,40	347,64
816,58	287,23
816,75	300,03
816,93	340,47
817,10	329,72
817,28	342,01
817,46	302,59
817,63	295,93
817,81	307,71
817,98	252,92
818,16	264,70
818,33	281,60
818,51	293,37
818,68	315,39
818,86	404,47
819,03	359,42
819,21	306,17
819,38	295,42
819,56	259,07
819,73	260,60
819,91	331,77
820,08	288,25
820,26	270,33
820,43	385,53
820,61	218,62
820,78	223,23
820,96	251,90
821,13	312,32
821,31	310,78
821,48	263,16
821,66	263,16
821,83	335,87
822,00	191,49
822,18	249,34
822,35	263,68
822,53	357,37
822,70	253,95
822,88	316,92
823,05	282,11
823,23	272,89
823,40	208,38
823,58	301,05
823,75	225,79
823,93	219,13
824,10	187,39
824,28	194,05
824,45	249,34
824,62	223,23
824,80	275,96
824,97	282,62
825,15	271,87
825,32	257,02
825,50	289,28
825,67	284,67
825,85	343,03
826,02	192,51
826,19	245,24
826,37	335,87
826,54	250,36
826,72	203,26
826,89	230,40
827,07	244,73
827,24	269,82
827,41	252,41
827,59	244,22
827,76	213,50
827,94	204,28
828,11	342,01
828,28	237,05
828,46	237,56
828,63	236,54
828,81	206,33
828,98	264,19
829,15	278,01
829,33	173,57
829,50	231,93
829,68	219,13
829,85	265,72
830,02	306,68
830,20	233,47
830,37	263,68
830,55	252,41
830,72	245,76
830,89	165,89
831,07	207,36
831,24	294,91
831,42	185,34
831,59	178,17
831,76	192,51
831,94	214,01
832,11	248,32
832,28	284,67
832,46	203,77
832,63	195,07
832,81	250,36
832,98	219,13
833,15	228,86
833,33	203,77
833,50	227,84
833,67	250,88
833,85	244,22
834,02	263,16
834,19	147,97
834,37	216,57
834,54	243,20
834,71	202,24
834,89	230,40
835,06	185,34
835,23	169,98
835,41	195,07
835,58	243,20
835,75	198,14
835,93	207,36
836,10	223,74
836,27	219,64
836,45	341,50
836,62	204,80
836,79	263,68
836,97	240,64
837,14	288,25
837,31	194,05
837,49	219,13
837,66	141,82
837,83	222,72
838,01	182,27
838,18	246,27
838,35	165,89
838,53	244,73
838,70	186,37
838,87	240,12
839,04	135,17
839,22	323,58
839,39	147,45
839,56	216,06
839,74	220,67
839,91	169,98
840,08	194,56
840,26	232,96
840,43	156,67
840,60	187,90
840,77	153,09
840,95	231,42
841,12	188,93
841,29	156,16
841,46	248,32
841,64	230,91
841,81	215,04
841,98	138,75
842,16	181,76
842,33	162,30
842,50	224,76
842,67	113,66
842,85	184,83
843,02	220,67
843,19	202,75
843,36	222,72
843,54	190,46
843,71	203,26
843,88	170,49
844,05	120,32
844,23	185,34
844,40	174,08
844,57	162,30
844,74	221,18
844,92	173,05
845,09	134,65
845,26	156,16
845,43	74,75
845,61	165,37
845,78	251,90
845,95	158,21
846,12	270,33
846,29	192,51
846,47	235,52
846,64	161,28
846,81	78,85
846,98	48,64
847,16	150,01
847,33	194,56
847,50	109,05
847,67	97,79
847,84	210,94
848,02	158,21
848,19	125,95
848,36	168,45
848,53	151,55
848,70	196,61
848,88	164,86
849,05	195,07
849,22	171,52
849,39	130,05
849,56	61,95
849,74	158,72
849,91	176,64
850,08	189,44
850,25	155,65
850,42	259,07
850,60	233,47
850,77	193,53
850,94	188,41
851,11	221,18
851,28	172,54
851,45	164,86
851,63	209,40
851,80	194,56
851,97	134,65
852,14	247,80
852,31	203,26
852,48	132,09
852,66	131,58
852,83	192,51
853,00	138,75
853,17	171,01
853,34	158,72
853,51	177,66
853,68	205,82
853,86	181,76
854,03	156,67
854,20	121,85
854,37	103,42
854,54	218,11
854,71	174,59
854,88	210,94
855,06	156,16
855,23	212,48
855,40	134,65
855,57	93,18
855,74	175,61
855,91	188,41
856,08	154,11
856,25	160,77
856,43	152,57
856,60	57,34
856,77	189,44
856,94	157,69
857,11	137,21
857,28	152,57
857,45	197,12
857,62	66,56
857,79	181,25
857,97	228,35
858,14	145,92
858,31	255,48
858,48	206,33
858,65	142,85
858,82	98,30
858,99	147,97
859,16	80,38
859,33	38,91
859,50	134,14
859,67	80,38
859,85	139,26
860,02	63,49
860,19	136,19
860,36	156,67
860,53	192,51
860,70	140,80
860,87	189,95
861,04	224,25
861,21	188,93
861,38	221,18
861,55	139,77
861,72	183,81
861,89	142,85
862,06	143,36
862,23	163,33
862,41	108,54
862,58	136,19
862,75	163,84
862,92	200,19
863,09	82,43
863,26	118,78
863,43	177,66
863,60	207,87
863,77	141,82
863,94	104,96
864,11	185,85
864,28	88,57
864,45	96,25
864,62	181,25
864,79	218,62
864,96	158,72
865,13	164,86
865,30	134,65
865,47	173,57
865,64	40,96
865,81	158,21
865,98	226,30
866,15	93,18
866,32	206,84
866,49	190,46
866,66	224,76
866,83	113,15
867,00	150,53
867,17	214,01
867,34	50,69
867,51	225,28
867,68	92,67
867,85	190,46
868,02	138,24
868,19	120,32
868,36	151,04
868,53	124,93
868,70	105,98
868,87	86,01
869,04	228,35
869,21	146,94
869,38	124,41
869,55	117,25
869,72	185,34
869,89	90,62
870,06	159,74
870,23	115,20
870,40	101,89
870,57	110,08
870,74	103,42
870,91	170,49
871,08	53,25
871,25	172,03
871,42	137,73
871,59	191,49
871,76	108,54
871,93	56,83
872,10	110,08
872,27	219,13
872,44	99,84
872,60	122,37
872,77	196,60
872,94	116,22
873,11	141,82
873,28	184,83
873,45	133,12
873,62	185,34
873,79	107,01
873,96	53,76
874,13	162,81
874,30	37,38
874,47	169,98
874,64	208,89
874,81	83,45
874,97	133,63
875,14	166,91
875,31	84,48
875,48	163,33
875,65	148,99
875,82	128,51
875,99	182,78
876,16	204,28
876,33	203,26
876,50	110,08
876,67	160,25
876,83	70,65
877,00	133,63
877,17	203,77
877,34	43,52
877,51	159,74
877,68	129,53
877,85	31,23
878,02	102,40
878,19	109,57
878,35	102,91
878,52	127,49
878,69	76,29
878,86	73,73
879,03	49,15
879,20	189,95
879,37	172,54
879,54	99,33
879,70	171,52
879,87	85,50
880,04	136,19
880,21	100,86
880,38	137,73
880,55	133,63
880,72	158,21
880,89	70,14
881,05	202,75
881,22	107,52
881,39	128,51
881,56	154,62
881,73	73,21
881,90	150,53
882,06	98,81
882,23	40,96
882,40	86,53
882,57	166,40
882,74	166,40
882,91	155,13
883,07	70,14
883,24	183,29
883,41	96,77
883,58	112,64
883,75	80,89
883,92	64,51
884,08	104,96
884,25	89,60
884,42	124,93
884,59	124,93
884,76	207,36
884,92	49,15
885,09	178,69
885,26	92,67
885,43	103,42
885,60	167,93
885,76	160,77
885,93	107,52
886,10	182,78
886,27	140,80
886,44	149,50
886,60	221,69
886,77	125,44
886,94	73,21
887,11	84,48
887,28	143,36
887,44	153,60
887,61	118,78
887,78	143,87
887,95	133,63
888,12	137,73
888,28	143,87
888,45	111,10
888,62	80,89
888,79	117,76
888,95	83,97
889,12	132,61
889,29	157,69
889,46	71,17
889,62	157,18
889,79	200,70
889,96	94,21
890,13	148,48
890,29	148,99
890,46	118,27
890,63	110,59
890,80	117,76
890,96	132,61
891,13	111,10
891,30	142,33
891,47	64,00
891,63	212,99
891,80	194,05
891,97	128,51
892,14	141,82
892,30	119,29
892,47	185,85
892,64	130,56
892,80	119,81
892,97	85,50
893,14	61,44
893,31	116,22
893,47	76,80
893,64	169,98
893,81	163,33
893,97	173,57
894,14	132,09
>>>>>End Processed Spectral Data<<<<<
