SpectraSuite Datei
++++++++++++++++++++++++++++++++++++
Datum: Mon Dec 11 14:42:58 CET 2017
Benutzer: Praktikum-Pc1
Dark-Spektrum vorhanden: Ja
Referenz-Spektrum vorhanden: Nein
Zahl der probierten Teilspektren: 1
Spektrometer: USB4H10187
Integrationszeit (usec): 150000 (USB4H10187)
Spektren Durchschnitt berechnet: 4 (USB4H10187)
Boxcar Glättung: 0 (USB4H10187)
Dunkelstromkorrektur: Nein (USB4H10187)
Puls/Lampe aktiviert: Nein (USB4H10187)
Correct for Detector Non-linearity: Nein (USB4H10187)
Streulichtkorrektur: Nein (USB4H10187)
Anzahl Pixel in verarbeitetem Spektrum: 3648
>>>>>Begin Processed Spectral Data<<<<<
176,80	-2,05
177,02	-2,05
177,24	-2,05
177,46	40,96
177,68	18,43
177,91	31,23
178,13	21,50
178,35	45,57
178,57	17,41
178,79	8,70
179,02	18,94
179,24	54,78
179,46	19,97
179,68	0,51
179,90	26,11
180,12	56,83
180,35	22,02
180,57	45,06
180,79	63,49
181,01	78,33
181,23	35,33
181,46	37,38
181,68	61,44
181,90	53,76
182,12	70,65
182,34	59,90
182,56	-4,10
182,79	79,36
183,01	47,10
183,23	51,71
183,45	72,70
183,67	17,41
183,89	62,98
184,12	63,49
184,34	24,06
184,56	67,07
184,78	-17,92
185,00	53,76
185,22	27,14
185,45	18,43
185,67	32,26
185,89	40,96
186,11	68,61
186,33	27,14
186,55	51,20
186,77	17,92
187,00	25,60
187,22	43,01
187,44	61,44
187,66	57,86
187,88	69,63
188,10	47,10
188,32	-16,38
188,55	78,33
188,77	52,74
188,99	27,65
189,21	82,94
189,43	47,10
189,65	20,48
189,87	53,76
190,10	43,52
190,32	24,06
190,54	53,76
190,76	27,14
190,98	15,87
191,20	35,33
191,42	19,97
191,64	45,57
191,87	47,62
192,09	38,40
192,31	31,74
192,53	-27,14
192,75	56,32
192,97	50,69
193,19	60,42
193,41	31,23
193,64	78,85
193,86	42,50
194,08	14,34
194,30	53,25
194,52	58,37
194,74	-2,56
194,96	60,93
195,18	3,58
195,40	64,00
195,63	48,64
195,85	52,74
196,07	26,11
196,29	48,13
196,51	73,21
196,73	37,38
196,95	44,03
197,17	10,75
197,39	41,47
197,61	47,10
197,84	45,57
198,06	76,29
198,28	68,09
198,50	48,13
198,72	88,57
198,94	100,86
199,16	91,13
199,38	59,90
199,60	72,19
199,82	63,49
200,04	81,41
200,26	59,39
200,49	51,20
200,71	23,04
200,93	74,75
201,15	57,86
201,37	59,39
201,59	90,62
201,81	36,86
202,03	59,90
202,25	47,10
202,47	53,25
202,69	38,40
202,91	46,08
203,13	64,51
203,35	47,62
203,58	37,89
203,80	36,35
204,02	47,62
204,24	69,12
204,46	64,51
204,68	97,79
204,90	23,55
205,12	22,02
205,34	22,02
205,56	62,98
205,78	41,98
206,00	55,30
206,22	32,77
206,44	72,19
206,66	60,42
206,88	67,58
207,10	24,06
207,32	57,34
207,54	82,94
207,76	64,00
207,99	76,29
208,21	34,30
208,43	33,28
208,65	73,21
208,87	30,21
209,09	94,21
209,31	58,88
209,53	34,30
209,75	42,50
209,97	26,62
210,19	35,33
210,41	23,55
210,63	61,44
210,85	50,18
211,07	13,82
211,29	92,67
211,51	26,11
211,73	67,58
211,95	24,58
212,17	8,19
212,39	93,69
212,61	68,61
212,83	78,85
213,05	72,19
213,27	55,81
213,49	89,09
213,71	73,73
213,93	20,48
214,15	63,49
214,37	-4,10
214,59	50,18
214,81	6,14
215,03	83,45
215,25	40,45
215,47	64,51
215,69	75,26
215,91	73,21
216,13	60,93
216,35	103,93
216,57	53,76
216,79	52,74
217,01	51,20
217,23	66,05
217,45	63,49
217,67	51,71
217,89	30,72
218,11	56,83
218,33	24,58
218,55	78,33
218,77	66,56
218,99	54,27
219,21	23,55
219,43	19,46
219,65	60,42
219,87	54,78
220,09	58,88
220,31	119,81
220,53	43,01
220,75	100,35
220,97	104,45
221,19	40,45
221,41	40,45
221,63	42,50
221,85	35,84
222,06	63,49
222,28	60,93
222,50	54,27
222,72	64,51
222,94	55,81
223,16	58,88
223,38	27,14
223,60	37,38
223,82	71,68
224,04	74,75
224,26	83,45
224,48	131,07
224,70	9,22
224,92	47,62
225,14	51,71
225,36	74,75
225,58	53,25
225,80	32,26
226,02	19,97
226,24	35,33
226,45	48,13
226,67	20,99
226,89	5,12
227,11	78,85
227,33	69,63
227,55	30,72
227,77	50,18
227,99	45,57
228,21	23,04
228,43	66,56
228,65	26,62
228,87	91,65
229,09	48,64
229,31	40,45
229,52	45,57
229,74	37,89
229,96	55,81
230,18	65,54
230,40	14,34
230,62	68,09
230,84	49,15
231,06	61,95
231,28	5,63
231,50	23,04
231,72	71,68
231,94	52,74
232,15	46,08
232,37	39,42
232,59	41,98
232,81	76,29
233,03	40,45
233,25	51,20
233,47	46,59
233,69	71,17
233,91	56,32
234,13	68,61
234,34	51,20
234,56	59,90
234,78	62,46
235,00	55,30
235,22	14,34
235,44	52,22
235,66	7,17
235,88	44,03
236,10	75,26
236,31	47,10
236,53	61,44
236,75	70,65
236,97	114,17
237,19	66,05
237,41	47,10
237,63	38,40
237,85	95,23
238,07	43,01
238,28	15,87
238,50	80,89
238,72	52,74
238,94	1,02
239,16	38,40
239,38	55,81
239,60	50,18
239,81	69,63
240,03	64,00
240,25	55,30
240,47	68,09
240,69	60,42
240,91	50,18
241,13	59,90
241,34	95,74
241,56	74,75
241,78	56,32
242,00	70,14
242,22	28,67
242,44	32,77
242,66	55,30
242,87	64,00
243,09	11,26
243,31	102,91
243,53	121,34
243,75	96,25
243,97	59,39
244,19	71,68
244,40	108,03
244,62	85,50
244,84	67,07
245,06	54,27
245,28	24,06
245,50	49,15
245,71	32,26
245,93	69,12
246,15	27,65
246,37	65,02
246,59	75,77
246,81	85,50
247,02	52,74
247,24	-19,97
247,46	82,94
247,68	49,66
247,90	115,71
248,11	25,09
248,33	22,02
248,55	89,60
248,77	39,42
248,99	87,55
249,21	15,87
249,42	73,21
249,64	118,78
249,86	33,28
250,08	24,06
250,30	79,87
250,51	33,28
250,73	55,30
250,95	62,46
251,17	37,38
251,39	11,26
251,60	91,13
251,82	-4,10
252,04	108,03
252,26	35,33
252,48	48,13
252,69	71,68
252,91	26,11
253,13	22,53
253,35	58,88
253,57	81,92
253,78	2,56
254,00	76,80
254,22	99,84
254,44	13,82
254,65	93,69
254,87	32,26
255,09	97,28
255,31	48,64
255,53	56,83
255,74	98,30
255,96	77,82
256,18	107,01
256,40	57,34
256,61	77,31
256,83	60,93
257,05	44,54
257,27	42,50
257,48	90,11
257,70	58,37
257,92	90,11
258,14	49,15
258,36	36,86
258,57	45,57
258,79	45,06
259,01	10,24
259,23	38,40
259,44	45,57
259,66	109,57
259,88	83,97
260,10	70,65
260,31	61,95
260,53	27,65
260,75	67,58
260,97	56,83
261,18	41,98
261,40	-5,12
261,62	30,21
261,84	44,54
262,05	86,53
262,27	37,89
262,49	46,59
262,71	64,51
262,92	46,08
263,14	77,82
263,36	48,13
263,57	36,35
263,79	18,43
264,01	113,15
264,23	64,00
264,44	61,44
264,66	90,62
264,88	93,18
265,10	112,13
265,31	84,48
265,53	58,88
265,75	113,15
265,96	48,13
266,18	55,30
266,40	93,69
266,62	36,35
266,83	91,65
267,05	66,05
267,27	138,24
267,48	37,38
267,70	67,07
267,92	61,95
268,14	60,93
268,35	87,55
268,57	68,09
268,79	33,28
269,00	23,55
269,22	51,20
269,44	75,77
269,65	22,02
269,87	51,20
270,09	102,40
270,31	92,67
270,52	43,52
270,74	97,28
270,96	128,00
271,17	51,71
271,39	39,42
271,61	83,97
271,82	71,17
272,04	66,56
272,26	48,64
272,47	68,09
272,69	37,38
272,91	45,57
273,12	59,90
273,34	78,85
273,56	32,26
273,77	92,16
273,99	68,61
274,21	86,53
274,42	48,64
274,64	38,40
274,86	111,61
275,08	48,13
275,29	64,51
275,51	76,80
275,72	91,13
275,94	103,93
276,16	62,98
276,37	52,74
276,59	89,09
276,81	35,33
277,02	56,83
277,24	108,54
277,46	74,75
277,67	28,67
277,89	76,29
278,11	33,79
278,32	79,36
278,54	41,47
278,76	76,29
278,97	100,35
279,19	69,63
279,41	60,93
279,62	50,18
279,84	66,56
280,05	65,02
280,27	87,55
280,49	92,67
280,70	61,95
280,92	68,61
281,14	45,06
281,35	88,06
281,57	13,31
281,79	113,66
282,00	87,04
282,22	57,86
282,43	107,52
282,65	78,33
282,87	82,94
283,08	34,82
283,30	71,17
283,52	12,29
283,73	72,70
283,95	15,87
284,16	59,39
284,38	39,94
284,60	101,89
284,81	34,30
285,03	71,17
285,24	97,79
285,46	91,13
285,68	22,02
285,89	54,78
286,11	61,44
286,32	66,05
286,54	64,51
286,76	36,86
286,97	88,57
287,19	69,63
287,40	48,13
287,62	53,76
287,84	90,62
288,05	60,93
288,27	65,02
288,48	64,00
288,70	52,74
288,92	89,09
289,13	105,47
289,35	41,47
289,56	74,75
289,78	90,62
289,99	77,31
290,21	55,30
290,43	121,85
290,64	42,50
290,86	44,03
291,07	25,60
291,29	58,88
291,51	91,13
291,72	54,78
291,94	67,07
292,15	53,25
292,37	35,33
292,58	50,69
292,80	65,54
293,01	113,66
293,23	50,69
293,45	52,22
293,66	45,06
293,88	114,69
294,09	52,74
294,31	88,06
294,52	73,21
294,74	52,74
294,96	126,97
295,17	79,87
295,39	94,21
295,60	61,44
295,82	51,71
296,03	51,71
296,25	60,93
296,46	96,25
296,68	52,22
296,89	92,16
297,11	77,82
297,32	67,58
297,54	79,87
297,76	140,80
297,97	84,99
298,19	89,09
298,40	5,12
298,62	62,98
298,83	116,22
299,05	51,71
299,26	93,18
299,48	56,32
299,69	71,68
299,91	32,77
300,12	61,95
300,34	104,96
300,55	50,18
300,77	20,99
300,98	110,59
301,20	51,71
301,41	47,10
301,63	95,23
301,84	48,13
302,06	130,56
302,28	67,07
302,49	44,03
302,71	75,77
302,92	26,11
303,14	23,55
303,35	44,03
303,57	91,13
303,78	40,45
304,00	112,13
304,21	102,91
304,43	71,17
304,64	98,30
304,86	82,43
305,07	48,13
305,29	55,30
305,50	76,80
305,71	52,74
305,93	99,84
306,14	70,65
306,36	53,76
306,57	68,61
306,79	39,94
307,00	52,22
307,22	34,82
307,43	84,48
307,65	132,09
307,86	59,90
308,08	81,41
308,29	93,69
308,51	92,67
308,72	64,00
308,94	79,36
309,15	56,32
309,37	126,97
309,58	110,08
309,80	77,82
310,01	124,41
310,22	98,81
310,44	87,55
310,65	71,17
310,87	62,46
311,08	62,46
311,30	72,19
311,51	107,52
311,73	65,02
311,94	46,08
312,16	95,23
312,37	92,16
312,58	40,96
312,80	108,54
313,01	69,12
313,23	53,25
313,44	115,71
313,66	62,46
313,87	92,16
314,09	45,06
314,30	75,77
314,51	64,00
314,73	99,84
314,94	23,04
315,16	91,13
315,37	81,41
315,59	65,02
315,80	54,78
316,01	57,86
316,23	77,82
316,44	60,93
316,66	48,13
316,87	83,45
317,09	90,62
317,30	77,31
317,51	34,82
317,73	39,94
317,94	117,25
318,16	49,66
318,37	41,47
318,58	57,86
318,80	105,47
319,01	121,85
319,23	111,10
319,44	89,60
319,66	94,72
319,87	42,50
320,08	69,12
320,30	45,06
320,51	92,67
320,73	71,68
320,94	129,02
321,15	102,40
321,37	92,67
321,58	28,16
321,80	89,09
322,01	144,38
322,22	62,46
322,44	94,72
322,65	82,43
322,86	83,45
323,08	61,44
323,29	113,66
323,51	87,55
323,72	143,87
323,93	31,23
324,15	88,06
324,36	109,05
324,58	103,93
324,79	88,06
325,00	114,69
325,22	113,66
325,43	47,10
325,64	118,78
325,86	109,57
326,07	171,52
326,28	187,90
326,50	141,31
326,71	162,30
326,93	160,25
327,14	163,84
327,35	117,25
327,57	163,33
327,78	183,81
327,99	149,50
328,21	135,17
328,42	199,16
328,63	152,57
328,85	190,97
329,06	144,38
329,27	178,17
329,49	252,41
329,70	206,84
329,91	219,64
330,13	230,91
330,34	256,00
330,56	242,17
330,77	233,47
330,98	252,41
331,20	202,75
331,41	317,44
331,62	274,94
331,84	284,16
332,05	326,65
332,26	350,20
332,48	339,45
332,69	386,04
332,90	344,57
333,11	371,71
333,33	383,48
333,54	378,87
333,75	412,67
333,97	386,04
334,18	365,56
334,39	414,20
334,61	418,30
334,82	499,70
335,03	477,18
335,25	514,04
335,46	478,71
335,67	523,26
335,89	406,52
336,10	476,66
336,31	502,78
336,53	496,12
336,74	481,27
336,95	500,73
337,16	453,11
337,38	486,90
337,59	538,62
337,80	506,36
338,02	623,61
338,23	598,01
338,44	620,53
338,65	703,99
338,87	662,01
339,08	708,60
339,29	763,38
339,51	772,08
339,72	775,67
339,93	849,91
340,14	881,65
340,36	868,34
340,57	877,04
340,78	923,63
341,00	928,75
341,21	1009,14
341,42	986,61
341,63	982,00
341,85	999,92
342,06	1081,33
342,27	1050,10
342,49	1135,60
342,70	1228,27
342,91	1236,97
343,12	1178,61
343,34	1257,96
343,55	1187,82
343,76	1199,09
343,97	1129,45
344,19	1068,02
344,40	1126,89
344,61	1111,02
344,82	1205,74
345,04	1222,64
345,25	1276,91
345,46	1336,30
345,67	1362,92
345,89	1339,37
346,10	1325,55
346,31	1443,82
346,52	1455,59
346,74	1410,03
346,95	1414,63
347,16	1520,10
347,37	1453,55
347,59	1491,95
347,80	1573,35
348,01	1554,92
348,22	1524,20
348,43	1595,88
348,65	1677,29
348,86	1619,43
349,07	1668,07
349,28	1648,61
349,50	1692,13
349,71	1786,34
349,92	1829,86
350,13	1982,43
350,34	1977,31
350,56	2037,73
350,77	2085,86
350,98	2102,75
351,19	2063,84
351,41	2129,89
351,62	2085,34
351,83	2064,35
352,04	2036,19
352,25	2056,16
352,47	2126,82
352,68	2186,72
352,89	2151,90
353,10	2280,93
353,31	2332,12
353,53	2474,97
353,74	2430,43
353,95	2578,39
354,16	2599,90
354,37	2723,29
354,59	2633,18
354,80	2745,81
355,01	2730,97
355,22	2715,61
355,43	2709,97
355,65	2665,94
355,86	2699,73
356,07	2631,64
356,28	2477,53
356,49	2474,46
356,70	2399,20
356,92	2349,02
357,13	2363,36
357,34	2390,49
357,55	2324,44
357,76	2212,83
357,98	2163,68
358,19	2154,46
358,40	2191,33
358,61	2235,87
358,82	2259,42
359,03	2403,29
359,25	2649,05
359,46	2955,22
359,67	2991,57
359,88	3064,27
360,09	3058,64
360,30	2954,19
360,51	3012,56
360,73	2974,16
360,94	2867,67
361,15	2901,46
361,36	2790,87
361,57	2856,92
361,78	2894,80
362,00	2970,58
362,21	3024,85
362,42	3238,35
362,63	3201,49
362,84	3321,81
363,05	3359,69
363,26	3408,84
363,48	3360,20
363,69	3382,73
363,90	3377,10
364,11	3492,81
364,32	3616,71
364,53	3480,52
364,74	3624,39
364,95	3617,74
365,17	3725,26
365,38	3901,38
365,59	4067,78
365,80	4240,83
366,01	4324,80
366,22	4384,19
366,43	4432,83
366,64	4440,00
366,86	4548,03
367,07	4447,68
367,28	4349,37
367,49	4336,57
367,70	4400,57
367,91	4212,67
368,12	4281,28
368,33	4169,66
368,54	4212,67
368,76	4289,98
368,97	4359,10
369,18	4543,42
369,39	4556,73
369,60	4622,27
369,81	4626,87
370,02	4750,26
370,23	4627,90
370,44	4518,33
370,65	4513,21
370,87	4531,13
371,08	4519,87
371,29	4550,07
371,50	4635,07
371,71	4594,62
371,92	4390,33
372,13	4398,01
372,34	4326,33
372,55	4255,17
372,76	4171,20
372,97	4073,41
373,18	4010,95
373,40	3863,49
373,61	3804,61
373,82	3686,34
374,03	3652,04
374,24	3754,44
374,45	3686,34
374,66	3771,85
374,87	3712,97
375,08	3862,47
375,29	3989,96
375,50	4131,78
375,71	4348,86
375,92	4244,42
376,13	4223,42
376,34	4398,52
376,56	4289,47
376,77	4422,59
376,98	4509,63
377,19	4735,42
377,40	4972,98
377,61	5149,62
377,82	5208,50
378,03	5439,92
378,24	5463,98
378,45	5295,54
378,66	5164,98
378,87	4885,94
379,08	4714,94
379,29	4658,10
379,50	4460,48
379,71	4427,71
379,92	4498,88
380,13	4583,35
380,34	4562,36
380,55	4785,59
380,76	4840,89
380,97	4953,52
381,18	4691,90
381,39	4462,01
381,60	4472,25
381,81	4136,38
382,02	3974,60
382,24	3717,06
382,45	3492,81
382,66	3351,50
382,87	3185,10
383,08	3154,90
383,29	3033,04
383,50	3065,30
383,71	3147,22
383,92	3352,52
384,13	3425,74
384,34	3680,20
384,55	3896,26
384,76	4170,18
384,97	4244,93
385,18	4286,91
385,39	4237,76
385,60	4323,77
385,81	4223,42
386,02	4299,71
386,23	4291,01
386,44	4449,72
386,65	4332,48
386,86	4398,52
387,07	4478,91
387,28	4417,47
387,49	4415,42
387,70	4391,87
387,91	4380,61
388,12	4311,49
388,32	4395,96
388,53	4396,48
388,74	4346,30
388,95	4536,25
389,16	4725,69
389,37	4985,27
389,58	5103,54
389,79	5376,43
390,00	5353,39
390,21	5406,13
390,42	5601,19
390,63	5514,67
390,84	5689,26
391,05	5772,20
391,26	6008,74
391,47	5836,20
391,68	5944,74
391,89	5661,61
392,10	5597,61
392,31	5141,43
392,52	4765,62
392,73	4347,84
392,94	3833,29
393,15	3461,07
393,36	3142,10
393,57	3099,09
393,78	3201,49
393,98	3601,35
394,19	3861,96
394,40	4209,60
394,61	4553,66
394,82	5177,26
395,03	5413,29
395,24	5605,29
395,45	5685,16
395,66	5815,72
395,87	5474,22
396,08	5217,71
396,29	4734,39
396,50	4252,61
396,71	3809,73
396,92	3668,94
397,12	3689,93
397,33	3919,30
397,54	4421,05
397,75	5029,30
397,96	5462,96
398,17	5982,63
398,38	6365,60
398,59	6808,98
398,80	6867,35
399,01	7210,39
399,22	7463,31
399,43	7341,97
399,63	7501,20
399,84	7822,22
400,05	7703,95
400,26	7653,77
400,47	7822,22
400,68	7829,38
400,89	7842,18
401,10	8005,51
401,31	7888,78
401,52	8018,31
401,72	8163,72
401,93	8104,32
402,14	8166,28
402,35	8268,16
402,56	8440,70
402,77	8001,41
402,98	7972,23
403,19	8039,81
403,40	7886,73
403,60	8035,72
403,81	7933,83
404,02	7891,85
404,23	8047,49
404,44	7969,16
404,65	7880,07
404,86	7759,75
405,07	7931,27
405,27	7795,08
405,48	7901,58
405,69	7696,27
405,90	7759,24
406,11	7719,31
406,32	7662,99
406,53	7767,43
406,74	7652,75
406,94	7585,16
407,15	7956,87
407,36	7725,45
407,57	7886,73
407,78	7977,86
407,99	8095,62
408,20	8019,85
408,40	8277,38
408,61	8466,30
408,82	8404,86
409,03	8649,60
409,24	8391,04
409,45	8322,43
409,65	8164,74
409,86	8049,03
410,07	7831,94
410,28	7643,53
410,49	7672,20
410,70	7786,38
410,90	7999,88
411,11	8427,39
411,32	8327,55
411,53	8456,06
411,74	8757,11
411,95	9011,57
412,15	8852,86
412,36	8796,03
412,57	8656,76
412,78	8699,77
412,99	8720,76
413,20	8637,31
413,40	8489,85
413,61	8614,27
413,82	8921,98
414,03	8488,32
414,24	8712,06
414,44	8607,10
414,65	8659,84
414,86	8724,86
415,07	8657,79
415,28	8695,16
415,48	8542,59
415,69	8575,36
415,90	8749,43
416,11	8831,87
416,32	8807,80
416,53	8772,47
416,73	8941,94
416,94	8650,62
417,15	8823,67
417,36	8574,85
417,56	8349,06
417,77	8261,51
417,98	8374,14
418,19	8383,36
418,40	8463,23
418,60	8536,45
418,81	8399,74
419,02	8395,14
419,23	8647,55
419,44	8173,96
419,64	8128,39
419,85	8201,60
420,06	8011,65
420,27	8221,57
420,47	8411,01
420,68	8365,44
420,89	8576,38
421,10	8843,13
421,30	8852,86
421,51	8822,65
421,72	8758,65
421,93	8704,38
422,14	8208,77
422,34	8373,12
422,55	8187,78
422,76	8064,90
422,97	8101,25
423,17	8187,78
423,38	8264,58
423,59	8044,93
423,80	8109,44
424,00	8092,04
424,21	8196,48
424,42	8316,29
424,63	8324,99
424,83	8285,06
425,04	8332,67
425,25	8104,84
425,46	8312,19
425,66	8221,57
425,87	8172,93
426,08	7954,82
426,28	8407,94
426,49	8130,95
426,70	8160,13
426,91	8083,84
427,11	8031,62
427,32	7803,27
427,53	7857,03
427,74	7972,74
427,94	7957,89
428,15	8041,86
428,36	7994,25
428,56	7962,50
428,77	7987,08
428,98	7760,78
429,19	7538,57
429,39	7298,96
429,60	7378,83
429,81	7085,97
430,01	6661,53
430,22	6355,36
430,43	6313,38
430,64	6037,41
430,84	5991,33
431,05	6339,49
431,26	6801,82
431,46	7247,76
431,67	7634,32
431,88	8360,83
432,08	8255,36
432,29	8583,55
432,50	8473,98
432,70	8469,37
432,91	8514,94
433,12	8725,88
433,33	8695,16
433,53	8527,74
433,74	8529,79
433,95	8288,64
434,15	7883,66
434,36	8272,77
434,57	8069,00
434,77	8283,52
434,98	8592,25
435,19	8594,30
435,39	8795,51
435,60	9076,09
435,81	9110,90
436,01	9224,56
436,22	9497,46
436,43	9497,97
436,63	9730,41
436,84	9658,22
437,05	9545,58
437,25	9278,32
437,46	9333,62
437,67	9194,87
437,87	8852,86
438,08	8774,01
438,29	8764,28
438,49	8415,62
438,70	8320,90
438,91	8489,85
439,11	8948,09
439,32	9030,52
439,52	8870,78
439,73	8841,59
439,94	8862,58
440,14	9231,73
440,35	9352,56
440,56	9060,73
440,76	9146,74
440,97	9434,99
441,18	9412,46
441,38	9579,89
441,59	9719,15
441,79	9825,13
442,00	9933,16
442,21	9826,67
442,41	9997,67
442,62	9749,87
442,83	9802,60
443,03	9801,07
443,24	9702,76
443,44	9978,22
443,65	9829,23
443,86	9811,31
444,06	9931,11
444,27	9999,72
444,48	9885,03
444,68	10011,50
444,89	10022,25
445,09	10201,44
445,30	9665,90
445,51	9826,67
445,71	9475,44
445,92	9428,85
446,12	9498,99
446,33	9585,01
446,54	9606,51
446,74	9715,56
446,95	9644,91
447,15	10143,59
447,36	10210,15
447,57	10125,16
447,77	10198,37
447,98	10317,67
448,18	10007,91
448,39	9810,28
448,59	10151,27
448,80	10256,74
449,01	10157,41
449,21	10136,93
449,42	10235,24
449,62	10282,34
449,83	10388,32
450,04	10461,54
450,24	10714,46
450,45	10728,80
450,65	10729,31
450,86	10764,12
451,06	11056,47
451,27	10880,35
451,47	10567,52
451,68	10550,62
451,89	10609,50
452,09	10510,18
452,30	10177,89
452,50	10125,16
452,71	10170,21
452,91	9816,43
453,12	9834,35
453,33	9803,11
453,53	9605,49
453,74	10135,40
453,94	10061,16
454,15	9913,70
454,35	9907,56
454,56	10124,13
454,76	10327,39
454,97	9916,78
455,17	10054,50
455,38	10227,56
455,58	10206,56
455,79	10143,08
456,00	10381,15
456,20	10403,17
456,41	10532,19
456,61	10147,17
456,82	10148,71
457,02	10688,86
457,23	10656,61
457,43	10641,76
457,64	10347,36
457,84	10345,31
458,05	10487,14
458,25	10129,25
458,46	10289,51
458,66	10260,32
458,87	10286,44
459,07	10412,90
459,28	10205,03
459,48	10216,80
459,69	10312,55
459,89	10232,16
460,10	10357,09
460,30	10709,34
460,51	10601,82
460,71	10640,22
460,92	10640,73
461,12	10683,74
461,33	11102,55
461,53	10907,48
461,74	10730,84
461,94	10739,04
462,15	11054,94
462,35	11032,92
462,56	10820,95
462,76	10865,50
462,97	11160,92
463,17	10877,79
463,38	10878,30
463,58	10804,06
463,79	11316,56
463,99	10909,53
464,20	10951,51
464,40	10811,74
464,61	10665,31
464,81	11101,01
465,02	10811,23
465,22	10941,79
465,43	11238,23
465,63	11060,06
465,83	10999,64
466,04	11444,56
466,24	11140,44
466,45	11405,14
466,65	10890,59
466,86	10960,73
467,06	10998,62
467,27	11077,46
467,47	11363,67
467,68	11297,62
467,88	11335,00
468,08	11384,66
468,29	11451,22
468,49	11468,11
468,70	11744,08
468,90	11809,61
469,11	11969,35
469,31	11969,35
469,52	11774,28
469,72	12453,70
469,92	11792,20
470,13	11939,15
470,33	11752,27
470,54	11609,93
470,74	11857,23
470,95	11899,21
471,15	12174,15
471,35	12206,41
471,56	12409,67
471,76	12824,89
471,97	12862,27
472,17	12910,91
472,38	13212,47
472,58	13200,18
472,78	13172,53
472,99	13172,54
473,19	12998,97
473,40	13400,37
473,60	12940,09
473,80	13304,12
474,01	13485,87
474,21	13590,32
474,42	13741,36
474,62	14119,72
474,83	13741,87
475,03	14157,10
475,23	13975,85
475,44	14146,86
475,64	14244,65
475,85	14005,55
476,05	13817,13
476,25	14175,02
476,46	14141,22
476,66	14017,83
476,86	14156,58
477,07	14336,29
477,27	14782,75
477,48	14934,30
477,68	14926,11
477,88	15388,95
478,09	15138,58
478,29	15354,65
478,50	15339,80
478,70	15376,15
478,90	15279,89
479,11	15494,42
479,31	15839,50
479,51	16002,32
479,72	15904,01
479,92	16027,40
480,12	16013,58
480,33	16183,56
480,53	16299,27
480,74	16307,98
480,94	16451,33
481,14	16729,34
481,35	16769,79
481,55	16911,61
481,75	17072,89
481,96	17154,30
482,16	17016,57
482,36	17229,56
482,57	17260,28
482,77	17110,27
482,97	17388,28
483,18	17474,29
483,38	17407,22
483,58	17502,45
483,79	17394,93
483,99	17386,74
484,19	17422,07
484,40	17286,39
484,60	17367,29
484,80	17607,41
485,01	17421,56
485,21	17260,79
485,41	16795,90
485,62	16392,97
485,82	15806,73
486,02	15332,12
486,23	15133,47
486,43	15055,13
486,63	15376,66
486,84	15617,81
487,04	15698,70
487,24	16399,62
487,45	16507,14
487,65	17180,41
487,85	17194,75
488,06	17542,90
488,26	17617,65
488,46	17696,50
488,67	17435,38
488,87	17722,10
489,07	17655,03
489,27	17933,55
489,48	18301,16
489,68	18255,59
489,88	18787,55
490,09	19091,16
490,29	18974,43
490,49	19257,56
490,70	19097,31
490,90	19020,51
491,10	18814,18
491,30	18932,96
491,51	18627,81
491,71	18588,90
491,91	18276,59
492,12	18249,45
492,32	18211,56
492,52	18471,14
492,72	18609,89
492,93	18671,33
493,13	18908,90
493,33	19019,49
493,53	18969,31
493,74	19122,40
493,94	18996,96
494,14	19129,05
494,34	19362,01
494,55	19451,10
494,75	19632,85
494,95	19635,41
495,16	19774,16
495,36	19593,94
495,56	19440,34
495,76	19467,99
495,97	19367,64
496,17	19440,86
496,37	19391,70
496,57	19609,30
496,78	19613,91
496,98	19642,07
497,18	19618,52
497,38	19476,69
497,59	19597,52
497,79	19431,64
497,99	19242,71
498,19	18855,65
498,39	19023,07
498,60	18815,71
498,80	18974,43
499,00	18865,89
499,20	18951,39
499,41	19093,72
499,61	18981,60
499,81	19064,03
500,01	18841,31
500,22	18636,00
500,42	18320,62
500,62	18334,95
500,82	18261,74
501,02	18092,78
501,23	17960,17
501,43	17858,80
501,63	17872,11
501,83	17920,24
502,03	17734,39
502,24	18004,21
502,44	17936,11
502,64	18133,23
502,84	18142,44
503,05	18290,41
503,25	18293,48
503,45	18122,99
503,65	17859,82
503,85	17778,93
504,06	17581,81
504,26	17570,04
504,46	17710,32
504,66	17853,68
504,86	18031,85
505,06	18116,84
505,27	18116,33
505,47	18573,54
505,67	18575,59
505,87	18629,86
506,07	18778,34
506,28	18840,29
506,48	18549,99
506,68	18617,06
506,88	18453,73
507,08	18511,08
507,28	18306,79
507,49	18296,04
507,69	18142,44
507,89	17864,94
508,09	18004,21
508,29	17944,30
508,49	18140,40
508,70	18254,06
508,90	18566,88
509,10	18522,34
509,30	18501,86
509,50	18558,69
509,70	18535,65
509,91	18411,75
510,11	18320,10
510,31	18399,98
510,51	18252,01
510,71	18441,45
510,91	18565,86
511,11	18766,05
511,32	18629,86
511,52	18671,33
511,72	18821,86
511,92	18900,19
512,12	18811,10
512,32	18538,21
512,52	18416,87
512,73	18312,42
512,93	18417,89
513,13	18394,34
513,33	18305,77
513,53	18280,68
513,73	18292,46
513,93	18097,90
514,13	17899,25
514,34	18006,77
514,54	17954,03
514,74	18067,18
514,94	18196,71
515,14	18120,94
515,34	18289,38
515,54	18268,91
515,74	18384,10
515,94	18215,15
516,15	18114,28
516,35	17703,15
516,55	17144,06
516,75	16561,41
516,95	16284,94
517,15	16122,63
517,35	16103,18
517,55	16324,36
517,75	16604,42
517,95	16504,58
518,16	16621,31
518,36	16762,11
518,56	16678,66
518,76	16809,73
518,96	16981,24
519,16	17196,79
519,36	17542,39
519,56	17672,43
519,76	17847,02
519,96	17965,29
520,16	18179,82
520,37	18117,87
520,57	18293,99
520,77	18198,76
520,97	18297,58
521,17	18249,96
521,37	18508,52
521,57	18556,64
521,77	18546,40
521,97	18658,02
522,17	18407,14
522,37	18513,64
522,57	18240,23
522,77	18194,15
522,97	18161,90
523,17	18091,24
523,37	18150,64
523,58	18344,68
523,78	18543,33
523,98	18838,24
524,18	18702,05
524,38	18973,92
524,58	18962,65
524,78	18941,66
524,98	18938,08
525,18	18677,99
525,38	18703,59
525,58	18684,64
525,78	18579,68
525,98	18516,71
526,18	18016,49
526,38	17632,50
526,58	17366,26
526,78	16891,65
526,98	16792,32
527,18	16755,97
527,38	16943,36
527,58	17149,69
527,78	17484,02
527,98	17658,61
528,18	17820,40
528,38	17966,83
528,58	18328,30
528,78	18566,37
528,98	18562,79
529,18	18530,02
529,38	18729,19
529,58	18585,83
529,78	18508,01
529,98	18317,03
530,18	18393,32
530,38	18482,92
530,58	18619,62
530,78	18833,12
530,98	18725,60
531,18	18833,63
531,38	18706,15
531,58	18752,74
531,78	18567,91
531,98	18494,18
532,18	18190,06
532,38	17977,07
532,58	17612,02
532,78	17650,42
532,98	17523,44
533,18	17642,74
533,38	17436,92
533,58	17932,01
533,78	17797,87
533,98	17967,85
534,18	18008,30
534,38	17883,89
534,58	17969,90
534,78	17829,62
534,98	18109,68
535,18	18288,87
535,38	18600,68
535,58	18449,13
535,78	18541,29
535,98	18661,60
536,18	18589,92
536,38	18202,35
536,58	18238,70
536,78	17716,98
536,98	17595,12
537,18	17688,82
537,38	17699,06
537,58	17691,38
537,78	17986,29
537,98	17864,94
538,17	17902,83
538,37	17713,39
538,57	17834,22
538,77	17747,19
538,97	17766,13
539,17	17672,43
539,37	17573,11
539,57	17256,70
539,77	17250,04
539,97	16928,51
540,17	16946,43
540,37	16787,20
540,57	16632,58
540,77	16670,98
540,97	16671,49
541,16	16552,20
541,36	16677,63
541,56	16732,93
541,76	16768,26
541,96	17012,99
542,16	16798,46
542,36	16939,77
542,56	16904,45
542,76	16857,85
542,96	16711,43
543,16	16617,22
543,36	16777,47
543,55	16919,81
543,75	16986,36
543,95	16998,65
544,15	16897,28
544,35	16800,00
544,55	17026,30
544,75	16828,16
544,95	16936,70
545,15	16710,40
545,35	16910,59
545,54	16771,84
545,74	16838,91
545,94	16722,18
546,14	16875,77
546,34	16842,50
546,54	16705,28
546,74	16697,60
546,94	16670,98
547,14	16516,87
547,33	16472,84
547,53	16252,17
547,73	16332,04
547,93	16296,71
548,13	16228,10
548,33	16303,88
548,53	16253,70
548,72	16374,53
548,92	16455,43
549,12	16570,63
549,32	16322,31
549,52	16381,70
549,72	16421,64
549,92	16435,46
550,12	16249,61
550,31	16232,20
550,51	16040,20
550,71	16374,02
550,91	16111,37
551,11	16065,80
551,31	16173,32
551,50	16118,03
551,70	16108,30
551,90	16170,25
552,10	16200,46
552,30	16113,42
552,50	16044,81
552,70	16045,84
552,89	16003,85
553,09	15948,56
553,29	15850,77
553,49	15926,03
553,69	15891,73
553,88	15881,49
554,08	15864,08
554,28	15936,78
554,48	15952,14
554,68	16051,47
554,88	16006,92
555,07	16057,61
555,27	15848,21
555,47	15995,15
555,67	15935,76
555,87	15981,32
556,06	15720,72
556,26	15652,11
556,46	15592,72
556,66	15474,96
556,86	15298,33
557,06	15286,04
557,25	15196,95
557,45	15101,21
557,65	15270,17
557,85	15234,33
558,05	15228,70
558,24	15171,86
558,44	15009,56
558,64	14942,49
558,84	14724,38
559,03	14608,16
559,23	14647,58
559,43	14682,40
559,63	14574,88
559,83	14492,96
560,02	14576,93
560,22	14785,31
560,42	14851,36
560,62	14957,34
560,82	14925,60
561,01	14838,05
561,21	14781,73
561,41	14870,30
561,61	14738,21
561,80	14522,66
562,00	14498,59
562,20	14639,39
562,40	14719,78
562,59	14631,20
562,79	14735,65
562,99	14703,90
563,19	14841,12
563,38	14568,74
563,58	14648,61
563,78	14613,28
563,98	14552,35
564,17	14455,08
564,37	14492,96
564,57	14551,84
564,77	14294,82
564,96	14404,39
565,16	14302,50
565,36	14265,13
565,56	14114,09
565,75	13899,05
565,95	13951,28
566,15	13981,48
566,35	13957,93
566,54	13973,29
566,74	14050,09
566,94	14064,94
567,14	14122,79
567,33	14165,29
567,53	14155,05
567,73	14110,50
567,92	13959,47
568,12	13805,87
568,32	13557,55
568,52	13540,66
568,71	13339,44
568,91	13478,71
569,11	13475,63
569,30	13322,04
569,50	13415,22
569,70	13434,68
569,90	13266,23
570,09	13322,04
570,29	13279,54
570,49	13255,99
570,68	13083,96
570,88	13000,51
571,08	13012,79
571,27	12916,54
571,47	12973,88
571,67	13069,62
571,87	13142,33
572,06	13048,63
572,26	13226,29
572,46	13278,52
572,65	13349,17
572,85	13274,93
573,05	13307,70
573,24	13321,52
573,44	13142,33
573,64	13086,01
573,83	13277,49
574,03	13139,26
574,23	13255,99
574,42	13161,27
574,62	13165,37
574,82	13077,82
575,01	12945,21
575,21	12947,77
575,41	12844,35
575,60	12752,70
575,80	12775,74
576,00	12769,09
576,19	12838,72
576,39	12739,39
576,59	12943,16
576,78	12800,83
576,98	12881,21
577,18	12946,23
577,37	13000,51
577,57	12852,03
577,77	12735,81
577,96	12759,87
578,16	12736,32
578,35	12663,10
578,55	12508,99
578,75	12639,55
578,94	12475,20
579,14	12685,63
579,34	12513,09
579,53	12729,15
579,73	12777,79
579,93	12714,30
580,12	12912,44
580,32	12769,09
580,51	12785,98
580,71	12962,62
580,91	12928,83
581,10	12839,23
581,30	13016,89
581,50	13070,65
581,69	12943,16
581,89	12998,97
582,08	13162,30
582,28	13062,97
582,48	13262,65
582,67	13072,18
582,87	13249,33
583,06	13268,28
583,26	13253,43
583,46	13175,61
583,65	13089,59
583,85	13142,84
584,04	13321,01
584,24	13060,92
584,44	13127,48
584,63	13134,14
584,83	13014,84
585,02	12927,80
585,22	12916,03
585,42	12826,94
585,61	12745,53
585,81	12635,97
586,00	12660,54
586,20	12661,05
586,39	12615,49
586,59	12521,28
586,79	12665,15
586,98	12619,58
587,18	12626,24
587,37	12670,78
587,57	12457,28
587,76	12322,12
587,96	12241,73
588,16	12058,44
588,35	11731,28
588,55	11453,78
588,74	11165,53
588,94	10777,95
589,13	10652,51
589,33	10441,57
589,52	10348,39
589,72	10378,59
589,92	10437,98
590,11	10675,04
590,31	10741,60
590,50	10860,89
590,70	11012,95
590,89	11080,02
591,09	11190,61
591,28	11064,15
591,48	11128,15
591,67	11030,87
591,87	10963,80
592,06	10964,31
592,26	10954,58
592,46	11035,99
592,65	11137,88
592,85	11134,81
593,04	11286,87
593,24	11237,72
593,43	11156,31
593,63	11199,32
593,82	11208,02
594,02	10968,92
594,21	11002,71
594,41	10767,20
594,60	10722,65
594,80	10721,63
594,99	10703,71
595,19	10773,34
595,38	10832,73
595,58	10915,16
595,77	10872,67
595,97	10961,24
596,16	11059,54
596,36	11052,38
596,55	10996,06
596,75	11096,41
596,94	11001,18
597,14	10944,34
597,33	10982,74
597,53	10951,51
597,72	10874,20
597,92	10960,22
598,11	10835,80
598,31	10861,91
598,50	10789,21
598,70	10755,93
598,89	10764,12
599,09	10731,87
599,28	10879,32
599,48	10945,88
599,67	10793,31
599,87	10787,68
600,06	10836,31
600,26	10763,10
600,45	10720,09
600,64	10827,61
600,84	10774,88
601,03	10692,96
601,23	10741,60
601,42	10657,63
601,62	10635,10
601,81	10611,04
602,01	10574,17
602,20	10573,66
602,40	10567,01
602,59	10418,53
602,78	10708,32
602,98	10482,02
603,17	10676,06
603,37	10641,25
603,56	10765,15
603,76	10706,78
603,95	10643,81
604,15	10702,17
604,34	10815,32
604,53	10763,10
604,73	10708,32
604,92	10604,89
605,12	10643,29
605,31	10693,98
605,51	10592,61
605,70	10511,71
605,89	10573,15
606,09	10500,45
606,28	10453,86
606,48	10447,71
606,67	10518,88
606,87	10539,36
607,06	10367,84
607,25	10477,92
607,45	10547,55
607,64	10409,31
607,84	10418,53
608,03	10305,89
608,22	10273,12
608,42	10331,49
608,61	10253,67
608,81	10158,95
609,00	10150,25
609,19	10097,51
609,39	10171,24
609,58	10011,50
609,78	10090,85
609,97	9916,78
610,16	10020,20
610,36	9966,95
610,55	9888,62
610,75	9933,67
610,94	9938,28
611,13	10028,90
611,33	9961,32
611,52	10091,37
611,71	9877,35
611,91	9971,05
612,10	9905,51
612,30	9864,55
612,49	9924,97
612,68	9830,76
612,88	9766,25
613,07	9761,64
613,26	9763,69
613,46	9734,00
613,65	9772,91
613,84	9812,84
614,04	9816,94
614,23	9681,26
614,43	9731,44
614,62	9746,80
614,81	9646,96
615,01	9833,83
615,20	9851,24
615,39	9830,76
615,59	9587,05
615,78	9672,04
615,97	9577,84
616,17	9509,74
616,36	9398,64
616,55	9508,72
616,75	9491,31
616,94	9448,82
617,13	9527,15
617,33	9562,48
617,52	9655,15
617,71	9684,84
617,91	9719,15
618,10	9821,03
618,29	9892,71
618,49	9765,74
618,68	9817,96
618,87	9799,02
619,07	9742,19
619,26	9801,58
619,45	9944,42
619,65	9897,32
619,84	9897,32
620,03	9854,83
620,22	9934,18
620,42	9952,10
620,61	10021,22
620,80	10053,48
621,00	9860,46
621,19	9930,60
621,38	9953,13
621,58	9892,71
621,77	9738,60
621,96	9775,47
622,15	9845,61
622,35	9785,71
622,54	9672,04
622,73	9850,73
622,93	9730,92
623,12	9785,19
623,31	9783,15
623,50	9735,53
623,70	9667,95
623,89	9672,04
624,08	9667,95
624,28	9703,28
624,47	9631,60
624,66	9616,24
624,85	9592,69
625,05	9521,52
625,24	9399,66
625,43	9531,76
625,62	9487,73
625,82	9604,46
626,01	9523,57
626,20	9585,52
626,39	9448,30
626,59	9599,34
626,78	9594,73
626,97	9514,86
627,17	9492,34
627,36	9369,97
627,55	9158,52
627,74	9116,53
627,93	9041,78
628,13	8956,28
628,32	8900,47
628,51	8883,58
628,70	8976,25
628,90	9074,04
629,09	9022,33
629,28	8980,85
629,47	8996,73
629,67	8922,49
629,86	9004,92
630,05	9122,68
630,24	9078,65
630,44	9130,87
630,63	9156,98
630,82	9135,99
631,01	9149,81
631,20	9082,23
631,40	9113,46
631,59	9095,54
631,78	9060,21
631,97	9001,85
632,16	9086,84
632,36	9090,42
632,55	9193,33
632,74	9378,16
632,93	9168,24
633,13	9167,73
633,32	9239,92
633,51	9172,34
633,70	9299,83
633,89	9134,45
634,09	9185,14
634,28	9225,59
634,47	9202,55
634,66	9280,37
634,85	9237,88
635,04	9230,20
635,24	9366,39
635,43	9311,60
635,62	9220,98
635,81	9315,19
636,00	9210,23
636,20	9129,84
636,39	9214,84
636,58	9226,10
636,77	9161,59
636,96	9242,99
637,15	9321,33
637,35	9249,14
637,54	9228,15
637,73	9338,74
637,92	9273,71
638,11	9280,88
638,30	9284,98
638,50	9307,51
638,69	9370,99
638,88	9275,76
639,07	9215,86
639,26	9299,31
639,45	9140,60
639,64	9137,01
639,84	9071,99
640,03	8849,78
640,22	9017,21
640,41	8996,21
640,60	8987,51
640,79	8993,65
640,98	8867,70
641,18	8944,50
641,37	8820,09
641,56	8876,41
641,75	8898,94
641,94	8891,26
642,13	8854,90
642,32	8782,71
642,52	8823,16
642,71	8806,78
642,90	8849,27
643,09	8893,30
643,28	8801,15
643,47	8812,92
643,66	8744,83
643,85	8792,95
644,04	8762,75
644,24	8780,15
644,43	8732,54
644,62	8757,63
644,81	8673,66
645,00	8621,44
645,19	8537,98
645,38	8526,21
645,57	8423,30
645,76	8346,50
645,96	8259,46
646,15	8322,43
646,34	8317,83
646,53	8156,55
646,72	8193,41
646,91	8050,57
647,10	7938,44
647,29	7875,46
647,48	7955,33
647,67	7775,63
647,86	7798,15
648,05	7793,03
648,25	7665,55
648,44	7750,03
648,63	7621,52
648,82	7630,22
649,01	7580,56
649,20	7611,79
649,39	7487,89
649,58	7530,89
649,77	7617,93
649,96	7687,56
650,15	7613,32
650,34	7732,11
650,53	7901,06
650,72	7897,99
650,91	7656,84
651,11	7780,23
651,30	7678,86
651,49	7624,08
651,68	7568,78
651,87	7506,83
652,06	7489,42
652,25	7517,58
652,44	7581,58
652,63	7664,52
652,82	7676,81
653,01	7672,71
653,20	7665,04
653,39	7707,02
653,58	7684,49
653,77	7652,75
653,96	7533,97
654,15	7665,04
654,34	7587,21
654,53	7505,29
654,72	7368,08
654,91	7329,68
655,10	7189,39
655,29	7096,72
655,48	6994,84
655,67	6693,79
655,86	6684,06
656,05	6518,68
656,24	6278,05
656,43	6283,17
656,62	6306,72
656,81	6452,13
657,00	6424,99
657,19	6629,79
657,38	6772,63
657,57	6815,64
657,76	6919,57
657,95	7023,51
658,14	7054,23
658,33	7167,38
658,52	7062,93
658,71	7235,99
658,90	7085,97
659,09	7191,44
659,28	7203,73
659,47	7257,49
659,66	7242,64
659,85	7246,74
660,04	7253,91
660,23	7346,58
660,42	7315,86
660,61	7326,10
660,80	7226,77
660,99	7244,69
661,18	7271,83
661,37	7222,67
661,56	7312,27
661,75	7370,13
661,94	7261,59
662,13	7420,81
662,32	7265,68
662,51	7218,07
662,70	7284,62
662,89	7190,42
663,08	7230,87
663,27	7147,41
663,46	7040,92
663,65	7052,18
663,83	7098,77
664,02	7097,75
664,21	7085,46
664,40	7036,31
664,59	7100,82
664,78	7027,60
664,97	7063,96
665,16	7039,89
665,35	7015,32
665,54	6993,30
665,73	6988,69
665,92	7110,55
666,11	6952,34
666,30	6910,36
666,49	6878,10
666,67	6983,06
666,86	6889,37
667,05	6762,39
667,24	6915,99
667,43	6870,94
667,62	6833,05
667,81	6782,87
668,00	6858,65
668,19	6842,26
668,38	6784,41
668,57	6864,79
668,76	6752,15
668,94	6694,30
669,13	6757,27
669,32	6741,40
669,51	6692,76
669,70	6774,68
669,89	6721,95
670,08	6652,31
670,27	6670,23
670,46	6748,57
670,64	6628,25
670,83	6568,35
671,02	6594,46
671,21	6527,90
671,40	6477,73
671,59	6556,06
671,78	6452,13
671,97	6519,20
672,16	6422,94
672,34	6440,86
672,53	6518,17
672,72	6509,98
672,91	6567,84
673,10	6463,90
673,29	6392,22
673,48	6447,52
673,66	6357,92
673,85	6450,59
674,04	6448,54
674,23	6323,10
674,42	6436,25
674,61	6364,06
674,80	6219,17
674,98	6247,84
675,17	6310,30
675,36	6260,64
675,55	6223,27
675,74	6335,39
675,93	6296,48
676,12	6325,15
676,30	6226,34
676,49	6290,34
676,68	6212,00
676,87	6206,88
677,06	6230,94
677,25	6121,89
677,43	6224,29
677,62	6222,24
677,81	6092,20
678,00	6108,07
678,19	6148,51
678,37	6084,52
678,56	6161,83
678,75	6265,76
678,94	6040,48
679,13	6104,48
679,32	6102,95
679,50	5993,38
679,69	6014,37
679,88	6057,89
680,07	6016,93
680,26	5973,92
680,44	5965,73
680,63	6024,10
680,82	5994,40
681,01	5931,94
681,20	5939,11
681,38	5913,51
681,57	5913,00
681,76	5972,39
681,95	5956,52
682,14	5957,54
682,32	5862,82
682,51	5872,55
682,70	5946,79
682,89	5890,47
683,07	5876,13
683,26	5757,35
683,45	5804,97
683,64	5811,11
683,83	5729,70
684,01	5688,23
684,20	5613,48
684,39	5702,06
684,58	5652,91
684,76	5705,64
684,95	5582,25
685,14	5703,59
685,33	5581,74
685,52	5605,80
685,70	5536,17
685,89	5499,82
686,08	5382,06
686,27	5158,83
686,45	4856,25
686,64	4556,73
686,83	4281,79
687,02	4031,43
687,20	3853,77
687,39	3726,28
687,58	3617,22
687,76	3767,75
687,95	3904,96
688,14	3986,88
688,33	4021,70
688,51	4051,39
688,70	3997,12
688,89	4037,57
689,08	4020,67
689,26	4056,00
689,45	4097,99
689,64	4145,60
689,83	4180,42
690,01	4176,32
690,20	4172,74
690,39	4276,16
690,57	4299,71
690,76	4383,17
690,95	4450,24
691,14	4514,24
691,32	4478,40
691,51	4556,22
691,70	4572,09
691,88	4542,91
692,07	4584,89
692,26	4596,15
692,44	4553,66
692,63	4576,70
692,82	4528,57
693,01	4520,89
693,19	4477,88
693,38	4485,05
693,57	4383,68
693,75	4447,16
693,94	4288,45
694,13	4383,17
694,31	4328,38
694,50	4440,51
694,69	4266,94
694,87	4389,82
695,06	4343,23
695,25	4444,60
695,43	4499,90
695,62	4422,59
695,81	4461,50
695,99	4534,20
696,18	4539,32
696,37	4666,30
696,55	4707,26
696,74	4710,33
696,93	4684,73
697,11	4768,70
697,30	4773,30
697,49	4743,10
697,67	4667,32
697,86	4809,65
698,05	4694,46
698,23	4654,01
698,42	4611,51
698,61	4541,37
698,79	4536,25
698,98	4447,16
699,17	4380,61
699,35	4466,11
699,54	4423,61
699,72	4398,01
699,91	4393,92
700,10	4318,65
700,28	4275,65
700,47	4318,65
700,66	4314,05
700,84	4246,98
701,03	4186,56
701,21	4249,54
701,40	4224,96
701,59	4278,21
701,77	4171,20
701,96	4311,49
702,15	4227,01
702,33	4184,51
702,52	4264,38
702,70	4239,81
702,89	4263,36
703,08	4351,42
703,26	4305,85
703,45	4337,09
703,63	4380,09
703,82	4420,03
704,01	4331,97
704,19	4320,70
704,38	4350,40
704,56	4421,56
704,75	4367,81
704,94	4366,78
705,12	4323,26
705,31	4385,73
705,49	4317,12
705,68	4287,93
705,86	4361,66
706,05	4376,51
706,24	4238,27
706,42	4293,05
706,61	4356,03
706,79	4285,37
706,98	4337,60
707,17	4286,40
707,35	4352,45
707,54	4341,69
707,72	4477,37
707,91	4311,49
708,09	4304,83
708,28	4344,25
708,46	4358,08
708,65	4376,00
708,84	4289,47
709,02	4288,45
709,21	4341,18
709,39	4276,16
709,58	4221,89
709,76	4316,09
709,95	4288,45
710,13	4335,55
710,32	4254,14
710,50	4310,97
710,69	4206,02
710,88	4275,65
711,06	4296,13
711,25	4320,70
711,43	4286,91
711,62	4243,39
711,80	4223,42
711,99	4271,55
712,17	4198,85
712,36	4231,62
712,54	4190,66
712,73	4195,26
712,91	4190,14
713,10	4175,81
713,28	4168,13
713,47	4145,60
713,65	4102,59
713,84	4202,43
714,02	4074,95
714,21	4064,19
714,39	4011,97
714,58	3954,63
714,76	3989,44
714,95	3985,86
715,13	3939,27
715,32	3880,90
715,50	3850,18
715,69	3795,40
715,87	3793,35
716,06	3716,04
716,24	3629,51
716,43	3519,43
716,61	3359,69
716,80	3227,60
716,98	3050,45
717,17	2996,18
717,35	2920,40
717,54	2872,79
717,72	2699,22
717,91	2644,44
718,09	2663,38
718,28	2611,67
718,46	2563,03
718,65	2528,73
718,83	2389,47
719,01	2457,05
719,20	2400,73
719,38	2374,62
719,57	2290,14
719,75	2333,15
719,94	2356,70
720,12	2363,36
720,31	2311,64
720,49	2410,97
720,68	2506,71
720,86	2632,15
721,04	2776,53
721,23	2784,73
721,41	2883,03
721,60	3001,81
721,78	3015,63
721,97	3089,36
722,15	3104,72
722,34	3034,58
722,52	3063,25
722,70	2990,03
722,89	2951,63
723,07	2788,31
723,26	2830,80
723,44	2766,81
723,63	2629,59
723,81	2583,00
723,99	2645,46
724,18	2627,03
724,36	2575,83
724,55	2512,86
724,73	2533,85
724,91	2441,18
725,10	2562,52
725,28	2498,01
725,47	2530,78
725,65	2527,71
725,83	2482,14
726,02	2546,14
726,20	2500,57
726,39	2524,12
726,57	2510,81
726,75	2508,76
726,94	2539,99
727,12	2552,79
727,31	2513,88
727,49	2498,52
727,67	2432,99
727,86	2476,51
728,04	2457,05
728,23	2470,36
728,41	2494,43
728,59	2461,15
728,78	2485,21
728,96	2416,60
729,14	2454,49
729,33	2457,05
729,51	2409,44
729,69	2441,18
729,88	2523,61
730,06	2478,04
730,25	2486,23
730,43	2464,73
730,61	2477,53
730,80	2435,03
730,98	2470,36
731,16	2529,75
731,35	2503,64
731,53	2539,99
731,71	2541,02
731,90	2561,50
732,08	2705,88
732,26	2678,74
732,45	2723,29
732,63	2851,28
732,81	2832,34
733,00	2898,39
733,18	2843,09
733,36	2858,45
733,55	2935,76
733,73	2931,67
733,91	2945,49
734,10	2955,73
734,28	3032,02
734,46	2974,67
734,65	2884,56
734,83	2931,16
735,01	2955,22
735,20	2926,55
735,38	2853,84
735,56	2841,04
735,75	2810,33
735,93	2857,43
736,11	2820,05
736,30	2842,58
736,48	2799,06
736,66	2839,51
736,84	2879,44
737,03	2910,68
737,21	2907,60
737,39	2928,60
737,58	2861,01
737,76	2911,19
737,94	2860,50
738,12	2872,79
738,31	2906,07
738,49	2810,84
738,67	2798,04
738,86	2840,02
739,04	2914,26
739,22	2833,88
739,40	2916,82
739,59	2836,95
739,77	2813,91
739,95	2888,66
740,14	2921,94
740,32	2833,88
740,50	2850,77
740,68	2841,04
740,87	2797,01
741,05	2892,24
741,23	2855,38
741,41	2827,73
741,60	2843,60
741,78	2889,17
741,96	2830,29
742,14	2837,97
742,33	2836,44
742,51	2825,17
742,69	2793,43
742,87	2822,61
743,06	2995,15
743,24	2858,96
743,42	2892,76
743,60	2891,73
743,79	2853,84
743,97	2872,28
744,15	2830,80
744,33	2786,77
744,52	2809,81
744,70	2827,22
744,88	2845,65
745,06	2906,07
745,24	2814,42
745,43	2809,30
745,61	2816,98
745,79	2814,93
745,97	2797,53
746,16	2809,30
746,34	2754,01
746,52	2817,49
746,70	2787,80
746,88	2795,48
747,07	2767,32
747,25	2736,60
747,43	2751,45
747,61	2769,37
747,79	2713,05
747,98	2719,70
748,16	2680,79
748,34	2677,72
748,52	2696,15
748,70	2692,57
748,89	2641,88
749,07	2683,35
749,25	2701,27
749,43	2682,33
749,61	2640,34
749,79	2663,90
749,98	2599,38
750,16	2583,00
750,34	2585,05
750,52	2611,16
750,70	2599,38
750,88	2608,09
751,07	2639,83
751,25	2579,93
751,43	2565,59
751,61	2546,65
751,79	2613,21
751,97	2573,78
752,16	2527,19
752,34	2576,34
752,52	2628,57
752,70	2601,43
752,88	2523,61
753,06	2575,83
753,25	2547,67
753,43	2544,09
753,61	2578,90
753,79	2553,31
753,97	2563,54
754,15	2552,79
754,33	2549,21
754,52	2463,19
754,70	2555,35
754,88	2629,08
755,06	2551,77
755,24	2535,90
755,42	2565,59
755,60	2599,90
755,78	2526,68
755,97	2574,30
756,15	2489,82
756,33	2601,94
756,51	2526,68
756,69	2563,54
756,87	2626,01
757,05	2608,09
757,23	2570,71
757,41	2579,93
757,60	2572,76
757,78	2606,55
757,96	2556,89
758,14	2538,46
758,32	2475,48
758,50	2466,78
758,68	2399,20
758,86	2229,21
759,04	2115,55
759,22	1994,21
759,41	1724,39
759,59	1412,07
759,77	1236,97
759,95	998,90
760,13	856,56
760,31	755,19
760,49	591,35
760,67	540,66
760,85	590,84
761,03	516,60
761,21	597,49
761,39	660,98
761,57	745,97
761,76	764,92
761,94	860,15
762,12	781,81
762,30	760,31
762,48	755,70
762,66	696,31
762,84	690,17
763,02	617,97
763,20	654,84
763,38	644,60
763,56	678,90
763,74	629,75
763,92	774,13
764,10	744,95
764,28	823,28
764,46	897,52
764,64	949,23
764,82	1027,57
765,00	1063,92
765,19	1181,17
765,37	1208,30
765,55	1297,39
765,73	1347,56
765,91	1434,60
766,09	1499,63
766,27	1552,87
766,45	1676,77
766,63	1698,28
766,81	1815,01
766,99	1816,55
767,17	1937,89
767,35	1901,03
767,53	2025,44
767,71	2043,36
767,89	2165,21
768,07	2182,11
768,25	2137,06
768,43	2288,09
768,61	2207,71
768,79	2273,25
768,97	2233,82
769,15	2164,19
769,33	2326,49
769,51	2273,76
769,69	2291,68
769,87	2292,19
770,05	2271,20
770,23	2282,97
770,41	2324,44
770,59	2301,40
770,77	2309,08
770,95	2354,65
771,13	2323,93
771,31	2285,02
771,49	2316,25
771,67	2267,61
771,85	2364,89
772,03	2319,84
772,21	2353,63
772,38	2322,91
772,56	2272,22
772,74	2263,01
772,92	2211,29
773,10	2246,11
773,28	2304,48
773,46	2201,05
773,64	2270,69
773,82	2297,82
774,00	2246,62
774,18	2214,37
774,36	2207,71
774,54	2199,52
774,72	2202,08
774,90	2171,87
775,08	2214,88
775,26	2112,99
775,44	2216,41
775,62	2216,41
775,80	2209,76
775,97	2165,73
776,15	2197,98
776,33	2214,37
776,51	2104,29
776,69	2112,48
776,87	2194,91
777,05	2107,36
777,23	2109,92
777,41	2102,75
777,59	2182,62
777,77	2080,74
777,95	2161,63
778,13	2042,34
778,30	2098,14
778,48	2129,89
778,66	2018,27
778,84	2065,38
779,02	2070,50
779,20	2032,61
779,38	2079,71
779,56	1957,35
779,74	2055,14
779,92	1994,21
780,09	2030,56
780,27	1980,90
780,45	1961,95
780,63	2031,07
780,81	1993,19
780,99	1948,13
781,17	1996,26
781,35	1945,57
781,52	1952,74
781,70	1955,81
781,88	1908,71
782,06	1963,49
782,24	1879,01
782,42	1922,53
782,60	1897,96
782,78	1888,74
782,95	1844,20
783,13	1883,11
783,31	1911,78
783,49	1927,65
783,67	1883,11
783,85	1875,43
784,03	1870,31
784,20	1844,20
784,38	1821,16
784,56	1733,61
784,74	1811,94
784,92	1769,45
785,10	1782,76
785,28	1812,96
785,45	1813,99
785,63	1789,92
785,81	1797,09
785,99	1737,70
786,17	1741,29
786,35	1745,89
786,52	1720,29
786,70	1678,31
786,88	1768,93
787,06	1679,85
787,24	1701,86
787,41	1710,57
787,59	1653,22
787,77	1650,15
787,95	1651,69
788,13	1621,48
788,31	1611,24
788,48	1612,78
788,66	1526,76
788,84	1559,02
789,02	1559,53
789,20	1569,77
789,37	1493,48
789,55	1527,27
789,73	1502,70
789,91	1473,00
790,09	1436,14
790,26	1463,79
790,44	1522,66
790,62	1444,84
790,80	1510,38
790,98	1491,95
791,15	1483,75
791,33	1440,75
791,51	1472,49
791,69	1457,64
791,86	1488,87
792,04	1427,43
792,22	1444,84
792,40	1407,98
792,58	1393,64
792,75	1403,88
792,93	1418,22
793,11	1450,47
793,29	1419,24
793,46	1430,51
793,64	1395,69
793,82	1423,85
794,00	1414,63
794,17	1391,59
794,35	1437,16
794,53	1412,07
794,71	1410,54
794,88	1412,59
795,06	1404,39
795,24	1335,28
795,42	1384,43
795,59	1360,36
795,77	1316,33
795,95	1326,57
796,13	1225,71
796,30	1300,46
796,48	1249,26
796,66	1258,48
796,83	1212,91
797,01	1297,90
797,19	1279,98
797,37	1285,10
797,54	1300,97
797,72	1263,08
797,90	1298,41
798,08	1265,64
798,25	1284,59
798,43	1289,71
798,61	1215,47
798,78	1297,39
798,96	1297,90
799,14	1250,80
799,31	1218,54
799,49	1214,96
799,67	1196,53
799,85	1197,55
800,02	1145,33
800,20	1196,01
800,38	1187,31
800,55	1226,73
800,73	1197,04
800,91	1166,83
801,08	1142,77
801,26	1213,42
801,44	1167,85
801,61	1119,21
801,79	1175,53
801,97	1085,42
802,15	1202,67
802,32	1159,15
802,50	1141,23
802,68	1120,75
802,85	1124,33
803,03	1127,92
803,21	1048,05
803,38	1156,59
803,56	1093,10
803,74	1074,67
803,91	1070,06
804,09	1096,18
804,26	1071,60
804,44	1055,73
804,62	1104,88
804,79	1088,50
804,97	1095,66
805,15	1067,50
805,32	1128,94
805,50	1090,03
805,68	1079,79
805,85	1120,24
806,03	1105,39
806,21	1074,67
806,38	1064,94
806,56	1028,59
806,73	1082,86
806,91	1066,99
807,09	1083,38
807,26	1065,97
807,44	1064,43
807,62	1115,12
807,79	1072,62
807,97	1018,86
808,14	1065,97
808,32	1035,25
808,50	1026,03
808,67	998,90
808,85	1034,74
809,02	976,88
809,20	1068,53
809,38	950,77
809,55	978,42
809,73	926,71
809,90	892,91
810,08	959,99
810,26	998,38
810,43	907,25
810,61	901,62
810,78	915,95
810,96	877,55
811,14	894,45
811,31	916,98
811,49	928,75
811,66	859,63
811,84	872,95
812,02	892,40
812,19	807,92
812,37	842,23
812,54	815,09
812,72	816,63
812,89	784,37
813,07	806,90
813,25	791,54
813,42	735,22
813,60	767,48
813,77	756,72
813,95	715,77
814,12	712,69
814,30	647,67
814,47	712,18
814,65	713,72
814,83	702,45
815,00	673,27
815,18	629,24
815,35	639,99
815,53	600,05
815,70	600,05
815,88	612,34
816,05	604,66
816,23	580,60
816,40	608,25
816,58	626,17
816,75	563,19
816,93	613,88
817,10	563,70
817,28	568,31
817,46	614,39
817,63	524,28
817,81	553,46
817,98	525,30
818,16	539,13
818,33	580,09
818,51	562,68
818,68	560,63
818,86	582,14
819,03	546,81
819,21	532,98
819,38	564,73
819,56	548,34
819,73	607,22
819,91	596,98
820,08	629,24
820,26	599,54
820,43	617,97
820,61	621,05
820,78	645,62
820,96	612,34
821,13	647,67
821,31	612,85
821,48	615,93
821,66	596,47
821,83	603,64
822,00	578,04
822,18	542,20
822,35	487,93
822,53	505,34
822,70	456,70
822,88	485,88
823,05	449,02
823,23	526,84
823,40	551,42
823,58	557,05
823,75	522,74
823,93	513,02
824,10	537,59
824,28	500,73
824,45	570,87
824,62	591,35
824,80	609,27
824,97	552,44
825,15	575,48
825,32	583,16
825,50	544,25
825,67	566,78
825,85	570,87
826,02	579,06
826,19	558,58
826,37	622,07
826,54	558,58
826,72	602,10
826,89	566,78
827,07	512,50
827,24	537,08
827,41	510,46
827,59	520,18
827,76	566,26
827,94	514,04
828,11	535,54
828,28	489,46
828,46	544,25
828,63	537,59
828,81	544,76
828,98	486,39
829,15	568,31
829,33	577,02
829,50	475,13
829,68	535,03
829,85	528,38
830,02	537,59
830,20	496,63
830,37	437,75
830,55	494,07
830,72	554,49
830,89	510,46
831,07	549,37
831,24	483,83
831,42	549,37
831,59	508,92
831,76	457,21
831,94	496,63
832,11	496,63
832,28	516,60
832,46	501,75
832,63	508,92
832,81	485,88
832,98	485,37
833,15	525,82
833,33	472,06
833,50	531,45
833,67	530,42
833,85	464,89
834,02	486,90
834,19	467,96
834,37	486,39
834,54	505,34
834,71	518,14
834,89	492,02
835,06	504,31
835,23	498,17
835,41	500,73
835,58	541,69
835,75	535,03
835,93	489,46
836,10	450,04
836,27	470,52
836,45	473,59
836,62	533,50
836,79	527,86
836,97	514,04
837,14	466,42
837,31	540,66
837,49	481,27
837,66	478,20
837,83	516,60
838,01	524,28
838,18	457,72
838,35	493,56
838,53	493,56
838,70	526,84
838,87	502,26
839,04	505,85
839,22	495,10
839,39	530,94
839,56	491,51
839,74	467,45
839,91	502,78
840,08	456,19
840,26	464,38
840,43	496,12
840,60	486,90
840,77	482,30
840,95	485,88
841,12	480,76
841,29	477,18
841,46	398,33
841,64	481,27
841,81	471,54
841,98	502,78
842,16	470,52
842,33	480,25
842,50	456,70
842,67	424,95
842,85	480,76
843,02	486,90
843,19	439,80
843,36	521,21
843,54	447,99
843,71	445,95
843,88	430,07
844,05	461,30
844,23	450,55
844,40	464,38
844,57	426,49
844,74	376,31
844,92	480,25
845,09	480,76
845,26	448,51
845,43	402,43
845,61	444,41
845,78	425,98
845,95	445,43
846,12	436,73
846,29	480,25
846,47	447,99
846,64	437,24
846,81	382,46
846,98	461,30
847,16	402,94
847,33	451,58
847,50	428,03
847,67	426,49
847,84	382,97
848,02	417,27
848,19	397,31
848,36	390,14
848,53	432,12
848,70	421,88
848,88	464,89
849,05	448,51
849,22	424,44
849,39	423,93
849,56	421,37
849,74	403,45
849,91	372,73
850,08	417,79
850,25	375,80
850,42	324,09
850,60	392,19
850,77	354,30
850,94	402,43
851,11	355,32
851,28	326,65
851,45	373,24
851,63	379,90
851,80	356,86
851,97	397,82
852,14	399,35
852,31	384,51
852,48	386,55
852,66	401,40
852,83	394,75
853,00	412,67
853,17	386,55
853,34	353,27
853,51	325,63
853,68	360,95
853,86	293,37
854,03	356,86
854,20	318,97
854,37	304,64
854,54	289,79
854,71	331,77
854,88	342,52
855,06	295,93
855,23	265,72
855,40	283,64
855,57	349,69
855,74	302,59
855,91	337,40
856,08	293,88
856,25	292,35
856,43	324,60
856,60	304,64
856,77	321,02
856,94	293,88
857,11	348,67
857,28	336,89
857,45	335,35
857,62	309,24
857,79	327,67
857,97	357,88
858,14	343,03
858,31	312,83
858,48	317,95
858,65	313,34
858,82	329,21
858,99	317,44
859,16	318,46
859,33	309,24
859,50	362,49
859,67	293,37
859,85	328,19
860,02	278,52
860,19	274,43
860,36	286,20
860,53	312,83
860,70	299,00
860,87	309,24
861,04	270,84
861,21	315,39
861,38	287,74
861,55	268,80
861,72	314,88
861,89	348,15
862,06	288,76
862,23	321,53
862,41	284,16
862,58	272,89
862,75	364,54
862,92	348,15
863,09	318,97
863,26	352,76
863,43	290,30
863,60	297,98
863,77	331,26
863,94	273,92
864,11	283,13
864,28	329,21
864,45	292,86
864,62	289,79
864,79	297,98
864,96	230,91
865,13	324,09
865,30	275,96
865,47	256,51
865,64	262,65
865,81	217,08
865,98	276,99
866,15	296,44
866,32	275,96
866,49	250,36
866,66	285,69
866,83	243,20
867,00	251,39
867,17	243,20
867,34	252,41
867,51	254,97
867,68	214,52
867,85	311,29
868,02	193,53
868,19	289,79
868,36	283,13
868,53	254,46
868,70	281,08
868,87	256,00
869,04	264,19
869,21	289,79
869,38	225,79
869,55	323,07
869,72	240,12
869,89	267,26
870,06	249,34
870,23	223,74
870,40	228,86
870,57	236,54
870,74	293,88
870,91	235,00
871,08	256,00
871,25	217,08
871,42	226,81
871,59	229,37
871,76	266,24
871,93	229,37
872,10	220,16
872,27	263,16
872,44	215,55
872,60	217,60
872,77	177,15
872,94	218,11
873,11	219,13
873,28	168,96
873,45	212,48
873,62	181,76
873,79	226,81
873,96	162,30
874,13	212,99
874,30	228,86
874,47	237,56
874,64	220,67
874,81	156,67
874,97	205,82
875,14	190,46
875,31	247,80
875,48	209,40
875,65	172,03
875,82	251,90
875,99	200,19
876,16	201,21
876,33	187,90
876,50	263,68
876,67	174,08
876,83	229,88
877,00	247,29
877,17	167,42
877,34	139,77
877,51	215,55
877,68	203,26
877,85	216,06
878,02	200,70
878,19	174,59
878,35	195,07
878,52	175,61
878,69	233,98
878,86	162,81
879,03	192,00
879,20	187,90
879,37	175,10
879,54	217,08
879,70	166,40
879,87	190,97
880,04	172,54
880,21	157,18
880,38	197,63
880,55	175,10
880,72	185,85
880,89	138,24
881,05	162,30
881,22	168,45
881,39	183,81
881,56	189,44
881,73	179,20
881,90	130,56
882,06	157,69
882,23	179,20
882,40	165,37
882,57	152,06
882,74	201,21
882,91	168,96
883,07	168,96
883,24	137,73
883,41	164,86
883,58	132,61
883,75	148,48
883,92	173,05
884,08	172,03
884,25	167,42
884,42	161,28
884,59	190,46
884,76	135,17
884,92	169,47
885,09	196,09
885,26	199,16
885,43	141,82
885,60	162,81
885,76	158,72
885,93	129,02
886,10	155,13
886,27	212,48
886,44	112,64
886,60	211,45
886,77	101,37
886,94	126,97
887,11	166,91
887,28	151,55
887,44	175,61
887,61	137,21
887,78	160,25
887,95	120,32
888,12	190,46
888,28	131,58
888,45	169,47
888,62	110,08
888,79	176,13
888,95	106,49
889,12	185,85
889,29	159,23
889,46	117,76
889,62	131,07
889,79	57,86
889,96	159,23
890,13	138,75
890,29	145,41
890,46	158,72
890,63	131,07
890,80	137,21
890,96	164,35
891,13	126,97
891,30	144,89
891,47	130,05
891,63	112,64
891,80	144,89
891,97	130,05
892,14	197,12
892,30	182,78
892,47	119,29
892,64	176,64
892,80	145,92
892,97	151,04
893,14	128,00
893,31	72,70
893,47	128,51
893,64	111,10
893,81	157,69
893,97	155,65
894,14	157,69
>>>>>End Processed Spectral Data<<<<<
