SpectraSuite Datei
++++++++++++++++++++++++++++++++++++
Datum: Mon Dec 11 15:08:21 CET 2017
Benutzer: Praktikum-Pc1
Dark-Spektrum vorhanden: Ja
Referenz-Spektrum vorhanden: Nein
Zahl der probierten Teilspektren: 1
Spektrometer: USB4H10187
Integrationszeit (usec): 150000 (USB4H10187)
Spektren Durchschnitt berechnet: 4 (USB4H10187)
Boxcar Glättung: 0 (USB4H10187)
Dunkelstromkorrektur: Nein (USB4H10187)
Puls/Lampe aktiviert: Nein (USB4H10187)
Correct for Detector Non-linearity: Nein (USB4H10187)
Streulichtkorrektur: Nein (USB4H10187)
Anzahl Pixel in verarbeitetem Spektrum: 3648
>>>>>Begin Processed Spectral Data<<<<<
176,80	-14,34
177,02	-14,34
177,24	-14,34
177,46	57,34
177,68	18,94
177,91	145,92
178,13	154,11
178,35	109,57
178,57	93,69
178,79	205,82
179,02	192,00
179,24	115,20
179,46	147,97
179,68	55,30
179,90	45,57
180,12	175,61
180,35	116,73
180,57	95,74
180,79	161,79
181,01	108,54
181,23	101,37
181,46	136,70
181,68	124,41
181,90	140,80
182,12	142,85
182,34	177,66
182,56	99,84
182,79	77,82
183,01	124,41
183,23	107,01
183,45	134,65
183,67	41,47
183,89	169,98
184,12	159,74
184,34	138,75
184,56	168,45
184,78	75,26
185,00	218,11
185,22	73,21
185,45	86,01
185,67	168,45
185,89	154,62
186,11	105,98
186,33	132,61
186,55	157,69
186,77	142,33
187,00	151,55
187,22	147,97
187,44	120,83
187,66	72,70
187,88	95,74
188,10	234,49
188,32	79,36
188,55	105,47
188,77	168,45
188,99	94,72
189,21	139,77
189,43	136,19
189,65	96,77
189,87	140,29
190,10	223,23
190,32	144,89
190,54	85,50
190,76	204,28
190,98	114,69
191,20	170,49
191,42	113,66
191,64	103,42
191,87	102,40
192,09	144,89
192,31	112,64
192,53	136,19
192,75	87,04
192,97	103,93
193,19	167,42
193,41	75,26
193,64	202,24
193,86	95,23
194,08	125,44
194,30	83,97
194,52	122,88
194,74	124,41
194,96	35,33
195,18	130,05
195,40	88,06
195,63	117,76
195,85	45,06
196,07	71,68
196,29	124,41
196,51	117,25
196,73	164,86
196,95	113,15
197,17	73,73
197,39	130,56
197,61	139,77
197,84	174,08
198,06	83,97
198,28	106,49
198,50	22,53
198,72	146,94
198,94	162,30
199,16	122,88
199,38	191,49
199,60	58,88
199,82	60,93
200,04	127,49
200,26	138,75
200,49	88,06
200,71	47,10
200,93	141,31
201,15	88,06
201,37	92,16
201,59	108,03
201,81	129,53
202,03	198,65
202,25	66,56
202,47	93,18
202,69	102,91
202,91	118,27
203,13	78,33
203,35	119,81
203,58	49,15
203,80	169,47
204,02	55,30
204,24	-22,53
204,46	119,29
204,68	155,65
204,90	131,07
205,12	123,90
205,34	101,37
205,56	144,89
205,78	154,62
206,00	98,81
206,22	94,21
206,44	136,70
206,66	37,89
206,88	144,89
207,10	86,01
207,32	209,40
207,54	163,33
207,76	109,57
207,99	99,84
208,21	83,97
208,43	136,70
208,65	57,86
208,87	178,69
209,09	123,90
209,31	123,39
209,53	59,39
209,75	199,16
209,97	145,92
210,19	102,91
210,41	137,73
210,63	118,27
210,85	87,55
211,07	122,37
211,29	100,86
211,51	155,65
211,73	155,13
211,95	215,04
212,17	141,31
212,39	123,39
212,61	155,65
212,83	81,41
213,05	155,13
213,27	175,10
213,49	96,77
213,71	89,60
213,93	141,31
214,15	156,16
214,37	160,25
214,59	118,78
214,81	111,10
215,03	78,85
215,25	95,74
215,47	131,07
215,69	103,42
215,91	116,73
216,13	146,94
216,35	125,44
216,57	61,44
216,79	124,93
217,01	157,18
217,23	73,73
217,45	155,13
217,67	148,48
217,89	196,09
218,11	130,56
218,33	127,49
218,55	88,06
218,77	132,09
218,99	108,03
219,21	114,17
219,43	107,01
219,65	168,45
219,87	201,72
220,09	172,54
220,31	130,05
220,53	114,17
220,75	115,71
220,97	43,52
221,19	43,52
221,41	26,62
221,63	107,52
221,85	140,29
222,06	140,29
222,28	205,82
222,50	116,22
222,72	127,49
222,94	96,77
223,16	139,77
223,38	179,20
223,60	52,74
223,82	121,34
224,04	213,50
224,26	103,93
224,48	119,81
224,70	203,26
224,92	87,04
225,14	154,11
225,36	196,09
225,58	34,30
225,80	176,64
226,02	165,37
226,24	81,92
226,45	109,05
226,67	71,68
226,89	22,02
227,11	105,47
227,33	129,53
227,55	55,81
227,77	136,70
227,99	76,80
228,21	67,58
228,43	152,06
228,65	95,74
228,87	139,77
229,09	-4,61
229,31	46,59
229,52	98,81
229,74	16,90
229,96	161,79
230,18	137,73
230,40	109,05
230,62	99,33
230,84	166,91
231,06	-15,87
231,28	100,86
231,50	114,69
231,72	70,65
231,94	75,77
232,15	98,30
232,37	101,89
232,59	45,06
232,81	211,96
233,03	56,83
233,25	151,55
233,47	109,57
233,69	83,45
233,91	89,60
234,13	51,20
234,34	111,61
234,56	98,30
234,78	184,32
235,00	37,38
235,22	73,73
235,44	74,24
235,66	101,37
235,88	59,39
236,10	174,08
236,31	82,43
236,53	160,25
236,75	158,21
236,97	73,73
237,19	144,89
237,41	104,96
237,63	153,60
237,85	135,17
238,07	139,26
238,28	60,93
238,50	126,97
238,72	81,92
238,94	139,77
239,16	125,44
239,38	91,65
239,60	134,14
239,81	93,69
240,03	100,35
240,25	94,21
240,47	158,72
240,69	116,22
240,91	141,31
241,13	248,32
241,34	142,33
241,56	120,83
241,78	121,85
242,00	63,49
242,22	79,36
242,44	175,61
242,66	32,26
242,87	88,57
243,09	128,00
243,31	83,45
243,53	66,05
243,75	148,99
243,97	89,60
244,19	126,97
244,40	136,70
244,62	111,61
244,84	216,06
245,06	137,73
245,28	73,73
245,50	135,17
245,71	168,96
245,93	57,34
246,15	85,50
246,37	121,85
246,59	239,10
246,81	82,94
247,02	25,60
247,24	151,04
247,46	76,29
247,68	143,36
247,90	133,12
248,11	108,54
248,33	107,52
248,55	142,33
248,77	29,18
248,99	137,73
249,21	45,57
249,42	115,71
249,64	182,27
249,86	113,66
250,08	118,78
250,30	95,74
250,51	124,41
250,73	13,31
250,95	94,21
251,17	208,89
251,39	134,65
251,60	181,76
251,82	175,61
252,04	128,51
252,26	53,25
252,48	75,26
252,69	151,04
252,91	118,78
253,13	89,60
253,35	186,88
253,57	132,09
253,78	53,25
254,00	132,61
254,22	78,33
254,44	86,01
254,65	70,65
254,87	91,13
255,09	115,20
255,31	118,78
255,53	70,14
255,74	148,48
255,96	131,07
256,18	116,22
256,40	130,56
256,61	67,58
256,83	207,87
257,05	121,85
257,27	169,98
257,48	83,45
257,70	158,72
257,92	110,08
258,14	108,03
258,36	57,86
258,57	199,68
258,79	134,14
259,01	178,17
259,23	125,95
259,44	97,79
259,66	186,37
259,88	158,72
260,10	101,89
260,31	117,25
260,53	217,60
260,75	38,40
260,97	144,89
261,18	57,86
261,40	172,54
261,62	74,24
261,84	136,19
262,05	109,05
262,27	170,49
262,49	77,82
262,71	102,91
262,92	186,88
263,14	105,98
263,36	98,30
263,57	145,92
263,79	180,22
264,01	156,16
264,23	86,01
264,44	131,58
264,66	105,47
264,88	135,17
265,10	90,11
265,31	181,25
265,53	51,20
265,75	142,33
265,96	133,63
266,18	167,42
266,40	125,44
266,62	162,81
266,83	182,78
267,05	44,54
267,27	161,28
267,48	254,46
267,70	43,52
267,92	110,08
268,14	156,16
268,35	101,37
268,57	176,13
268,79	193,53
269,00	171,52
269,22	137,21
269,44	120,32
269,65	99,33
269,87	87,55
270,09	140,80
270,31	68,09
270,52	168,96
270,74	152,57
270,96	78,85
271,17	124,93
271,39	94,21
271,61	161,79
271,82	153,60
272,04	142,33
272,26	104,45
272,47	155,13
272,69	96,25
272,91	37,89
273,12	124,93
273,34	143,87
273,56	127,49
273,77	111,10
273,99	146,94
274,21	136,70
274,42	89,09
274,64	140,29
274,86	46,59
275,08	110,08
275,29	42,50
275,51	162,30
275,72	76,29
275,94	196,09
276,16	113,66
276,37	118,27
276,59	60,42
276,81	71,17
277,02	97,79
277,24	95,74
277,46	71,17
277,67	42,50
277,89	178,69
278,11	141,82
278,32	109,05
278,54	39,42
278,76	224,25
278,97	171,52
279,19	143,36
279,41	101,89
279,62	126,46
279,84	158,21
280,05	87,55
280,27	87,55
280,49	96,77
280,70	168,45
280,92	72,70
281,14	130,56
281,35	-11,26
281,57	123,90
281,79	75,77
282,00	143,36
282,22	230,91
282,43	163,33
282,65	120,83
282,87	72,19
283,08	111,61
283,30	192,51
283,52	221,18
283,73	98,81
283,95	142,85
284,16	87,55
284,38	132,61
284,60	125,95
284,81	156,67
285,03	131,07
285,24	65,53
285,46	117,25
285,68	96,77
285,89	135,68
286,11	54,78
286,32	195,07
286,54	155,65
286,76	105,47
286,97	154,62
287,19	78,85
287,40	145,92
287,62	151,04
287,84	91,13
288,05	113,66
288,27	113,15
288,48	54,27
288,70	102,40
288,92	116,22
289,13	60,42
289,35	116,22
289,56	114,69
289,78	94,72
289,99	172,54
290,21	146,43
290,43	86,53
290,64	67,58
290,86	153,09
291,07	147,45
291,29	155,65
291,51	100,35
291,72	123,39
291,94	146,43
292,15	139,77
292,37	142,85
292,58	135,68
292,80	195,07
293,01	108,03
293,23	157,69
293,45	160,25
293,66	128,00
293,88	198,65
294,09	32,77
294,31	109,05
294,52	84,99
294,74	120,32
294,96	142,85
295,17	57,34
295,39	159,74
295,60	151,04
295,82	112,64
296,03	100,35
296,25	96,25
296,46	135,17
296,68	94,72
296,89	103,93
297,11	56,83
297,32	204,80
297,54	222,20
297,76	110,59
297,97	100,35
298,19	149,50
298,40	147,45
298,62	122,37
298,83	111,61
299,05	176,13
299,26	75,26
299,48	146,94
299,69	181,76
299,91	62,98
300,12	160,77
300,34	171,01
300,55	145,92
300,77	146,94
300,98	2,56
301,20	84,48
301,41	69,12
301,63	134,65
301,84	95,23
302,06	148,99
302,28	50,69
302,49	87,55
302,71	195,07
302,92	-2,56
303,14	156,16
303,35	165,37
303,57	97,28
303,78	139,26
304,00	153,09
304,21	93,18
304,43	81,92
304,64	131,58
304,86	82,94
305,07	123,39
305,29	162,30
305,50	81,41
305,71	149,50
305,93	143,36
306,14	182,27
306,36	165,37
306,57	170,49
306,79	176,13
307,00	68,61
307,22	122,88
307,43	52,22
307,65	157,69
307,86	140,80
308,08	112,13
308,29	125,95
308,51	118,78
308,72	163,33
308,94	151,04
309,15	159,23
309,37	132,61
309,58	64,00
309,80	57,86
310,01	115,20
310,22	138,75
310,44	141,31
310,65	108,03
310,87	140,29
311,08	172,03
311,30	74,75
311,51	190,97
311,73	150,53
311,94	108,03
312,16	129,02
312,37	187,39
312,58	287,74
312,80	179,20
313,01	240,64
313,23	235,52
313,44	249,85
313,66	161,79
313,87	263,68
314,09	86,01
314,30	135,17
314,51	154,62
314,73	68,61
314,94	158,72
315,16	151,55
315,37	161,28
315,59	68,09
315,80	68,09
316,01	162,30
316,23	172,54
316,44	125,44
316,66	176,64
316,87	200,70
317,09	145,92
317,30	114,69
317,51	117,25
317,73	151,04
317,94	99,84
318,16	148,48
318,37	85,50
318,58	-25,60
318,80	181,76
319,01	106,49
319,23	184,83
319,44	65,02
319,66	106,49
319,87	131,58
320,08	120,32
320,30	134,14
320,51	106,49
320,73	76,80
320,94	173,05
321,15	99,84
321,37	142,85
321,58	100,35
321,80	151,55
322,01	104,45
322,22	60,93
322,44	104,45
322,65	155,65
322,86	153,09
323,08	162,30
323,29	122,88
323,51	110,59
323,72	142,85
323,93	191,49
324,15	121,34
324,36	96,25
324,58	137,21
324,79	128,51
325,00	179,71
325,22	131,58
325,43	167,93
325,64	107,01
325,86	117,76
326,07	55,81
326,28	152,57
326,50	144,38
326,71	86,01
326,93	96,77
327,14	143,87
327,35	84,48
327,57	186,37
327,78	151,04
327,99	179,20
328,21	79,87
328,42	190,97
328,63	173,57
328,85	176,13
329,06	122,88
329,27	129,02
329,49	131,07
329,70	118,78
329,91	193,02
330,13	113,66
330,34	194,05
330,56	-1,54
330,77	158,21
330,98	179,71
331,20	133,63
331,41	227,84
331,62	143,36
331,84	146,94
332,05	151,04
332,26	192,00
332,48	199,68
332,69	167,42
332,90	146,94
333,11	95,74
333,33	114,69
333,54	172,03
333,75	145,41
333,97	116,73
334,18	267,77
334,39	283,64
334,61	274,43
334,82	278,52
335,03	168,45
335,25	203,26
335,46	178,69
335,67	178,17
335,89	159,74
336,10	144,38
336,31	148,48
336,53	115,20
336,74	182,78
336,95	235,00
337,16	124,93
337,38	143,87
337,59	305,15
337,80	124,41
338,02	139,77
338,23	232,44
338,44	156,67
338,65	158,21
338,87	193,53
339,08	205,82
339,29	217,08
339,51	195,07
339,72	146,94
339,93	197,12
340,14	161,79
340,36	167,42
340,57	176,13
340,78	132,61
341,00	132,61
341,21	203,77
341,42	310,27
341,63	131,58
341,85	123,90
342,06	146,43
342,27	169,47
342,49	250,36
342,70	186,37
342,91	186,37
343,12	215,55
343,34	228,86
343,55	188,41
343,76	209,40
343,97	242,17
344,19	238,08
344,40	182,78
344,61	224,25
344,82	191,49
345,04	132,09
345,25	264,19
345,46	156,16
345,67	184,83
345,89	186,37
346,10	198,65
346,31	129,02
346,52	149,50
346,74	129,02
346,95	241,15
347,16	147,45
347,37	159,74
347,59	201,21
347,80	185,34
348,01	215,04
348,22	218,62
348,43	169,47
348,65	129,02
348,86	220,16
349,07	269,31
349,28	149,50
349,50	215,55
349,71	235,52
349,92	172,54
350,13	224,25
350,34	174,08
350,56	168,45
350,77	262,14
350,98	208,38
351,19	192,51
351,41	206,84
351,62	295,93
351,83	138,24
352,04	254,46
352,25	201,72
352,47	225,79
352,68	346,62
352,89	116,73
353,10	247,80
353,31	214,01
353,53	219,13
353,74	173,57
353,95	201,21
354,16	250,88
354,37	231,93
354,59	269,82
354,80	250,88
355,01	167,93
355,22	205,31
355,43	172,54
355,65	138,75
355,86	284,67
356,07	225,79
356,28	191,49
356,49	164,35
356,70	239,61
356,92	221,69
357,13	203,26
357,34	222,20
357,55	280,06
357,76	246,78
357,98	140,80
358,19	247,29
358,40	180,73
358,61	185,34
358,82	208,38
359,03	183,81
359,25	281,60
359,46	285,18
359,67	227,84
359,88	184,32
360,09	198,14
360,30	176,64
360,51	197,63
360,73	301,05
360,94	218,62
361,15	148,99
361,36	189,95
361,57	235,00
361,78	195,07
362,00	211,45
362,21	240,12
362,42	307,71
362,63	202,75
362,84	195,07
363,05	184,83
363,26	189,95
363,48	233,98
363,69	334,33
363,90	294,40
364,11	504,82
364,32	1237,49
364,53	2178,53
364,74	3399,63
364,95	4572,09
365,17	5519,79
365,38	5870,50
365,59	5623,21
365,80	4757,43
366,01	3829,70
366,22	3014,61
366,43	2301,92
366,64	1877,99
366,86	1420,27
367,07	990,19
367,28	818,68
367,49	507,90
367,70	465,91
367,91	308,22
368,12	222,72
368,33	200,19
368,54	331,26
368,76	214,52
368,97	185,85
369,18	161,79
369,39	206,84
369,60	166,40
369,81	200,19
370,02	235,52
370,23	211,45
370,44	168,45
370,65	139,26
370,87	191,49
371,08	198,65
371,29	225,79
371,50	221,69
371,71	263,16
371,92	249,85
372,13	269,31
372,34	174,08
372,55	149,50
372,76	217,08
372,97	195,58
373,18	271,87
373,40	185,85
373,61	212,48
373,82	185,34
374,03	214,52
374,24	210,43
374,45	136,70
374,66	254,97
374,87	258,04
375,08	173,05
375,29	190,46
375,50	191,49
375,71	170,49
375,92	238,08
376,13	140,29
376,34	230,40
376,56	221,18
376,77	237,05
376,98	223,74
377,19	252,92
377,40	196,61
377,61	297,47
377,82	237,05
378,03	244,73
378,24	226,30
378,45	252,92
378,66	194,05
378,87	208,89
379,08	245,24
379,29	248,32
379,50	316,92
379,71	162,81
379,92	218,62
380,13	234,49
380,34	233,47
380,55	300,54
380,76	264,70
380,97	325,12
381,18	284,67
381,39	262,14
381,60	328,19
381,81	163,33
382,02	295,42
382,24	230,40
382,45	156,67
382,66	187,39
382,87	224,76
383,08	222,20
383,29	201,72
383,50	290,81
383,71	172,54
383,92	219,13
384,13	128,00
384,34	278,52
384,55	186,88
384,76	161,28
384,97	185,34
385,18	151,55
385,39	131,58
385,60	183,29
385,81	219,13
386,02	220,16
386,23	229,37
386,44	129,53
386,65	179,20
386,86	154,62
387,07	169,98
387,28	182,78
387,49	192,00
387,70	160,25
387,91	193,02
388,12	205,82
388,32	167,93
388,53	175,10
388,74	164,35
388,95	115,71
389,16	105,98
389,37	118,78
389,58	128,00
389,79	216,06
390,00	184,83
390,21	212,48
390,42	152,06
390,63	229,37
390,84	158,72
391,05	260,09
391,26	255,48
391,47	77,31
391,68	178,17
391,89	160,25
392,10	204,28
392,31	231,42
392,52	209,40
392,73	57,34
392,94	209,40
393,15	111,61
393,36	156,67
393,57	170,49
393,78	145,92
393,98	201,21
394,19	153,60
394,40	225,79
394,61	141,31
394,82	197,12
395,03	163,84
395,24	188,93
395,45	120,83
395,66	169,47
395,87	92,16
396,08	110,08
396,29	202,24
396,50	125,44
396,71	153,60
396,92	103,93
397,12	157,18
397,33	144,89
397,54	82,94
397,75	125,95
397,96	133,63
398,17	162,30
398,38	116,22
398,59	186,37
398,80	59,39
399,01	208,89
399,22	185,34
399,43	125,44
399,63	209,40
399,84	152,57
400,05	188,41
400,26	140,80
400,47	163,84
400,68	164,86
400,89	164,86
401,10	166,40
401,31	169,47
401,52	118,78
401,72	199,16
401,93	80,38
402,14	148,99
402,35	211,96
402,56	166,40
402,77	171,52
402,98	163,84
403,19	182,78
403,40	266,24
403,60	452,09
403,81	1315,82
404,02	2756,57
404,23	4953,52
404,44	7234,45
404,65	9068,92
404,86	9916,78
405,07	9311,60
405,27	7596,43
405,48	5766,57
405,69	3539,40
405,90	2207,20
406,11	1405,42
406,32	853,49
406,53	552,95
406,74	415,74
406,94	338,43
407,15	507,38
407,36	587,26
407,57	778,74
407,78	992,75
407,99	1107,95
408,20	1027,06
408,40	923,63
408,61	714,23
408,82	552,95
409,03	372,22
409,24	267,77
409,45	162,81
409,65	199,68
409,86	187,90
410,07	136,19
410,28	157,18
410,49	202,24
410,70	219,64
410,90	181,76
411,11	175,61
411,32	137,21
411,53	220,16
411,74	164,35
411,95	240,64
412,15	247,29
412,36	82,43
412,57	215,55
412,78	225,79
412,99	181,25
413,20	113,66
413,40	140,80
413,61	217,60
413,82	201,21
414,03	188,41
414,24	184,32
414,44	244,73
414,65	150,01
414,86	113,15
415,07	191,49
415,28	228,86
415,48	188,93
415,69	152,06
415,90	220,16
416,11	180,22
416,32	210,94
416,53	141,82
416,73	240,64
416,94	182,78
417,15	201,72
417,36	216,06
417,56	191,49
417,77	138,75
417,98	130,05
418,19	250,88
418,40	211,45
418,60	191,49
418,81	158,72
419,02	159,23
419,23	75,77
419,44	118,78
419,64	152,57
419,85	215,55
420,06	210,43
420,27	183,81
420,47	88,57
420,68	179,20
420,89	184,83
421,10	113,15
421,30	214,52
421,51	190,97
421,72	135,17
421,93	93,18
422,14	236,03
422,34	195,07
422,55	103,93
422,76	71,17
422,97	86,53
423,17	143,36
423,38	128,00
423,59	95,23
423,80	207,87
424,00	131,07
424,21	209,40
424,42	137,21
424,63	100,35
424,83	87,04
425,04	209,92
425,25	108,54
425,46	200,70
425,66	160,25
425,87	182,78
426,08	175,10
426,28	220,16
426,49	172,54
426,70	221,69
426,91	194,05
427,11	202,75
427,32	220,67
427,53	201,21
427,74	171,01
427,94	127,49
428,15	232,96
428,36	200,19
428,56	126,97
428,77	155,13
428,98	141,82
429,19	258,04
429,39	212,48
429,60	111,61
429,81	148,48
430,01	235,00
430,22	178,17
430,43	143,36
430,64	124,41
430,84	56,32
431,05	197,63
431,26	177,15
431,46	178,69
431,67	166,91
431,88	156,16
432,08	224,76
432,29	116,73
432,50	92,16
432,70	236,03
432,91	197,12
433,12	172,54
433,33	227,84
433,53	268,28
433,74	269,31
433,95	342,01
434,15	381,43
434,36	498,17
434,57	655,35
434,77	1004,02
434,98	3144,66
435,19	7153,55
435,39	12149,06
435,60	18122,48
435,81	23842,96
436,01	25512,57
436,22	24908,93
436,43	20839,62
436,63	15615,76
436,84	10492,26
437,05	6149,54
437,25	3758,53
437,46	2573,27
437,67	1551,34
437,87	903,67
438,08	601,08
438,29	402,43
438,49	338,43
438,70	314,88
438,91	265,21
439,11	237,05
439,32	312,32
439,52	271,36
439,73	227,32
439,94	236,54
440,14	180,73
440,35	161,79
440,56	181,76
440,76	196,60
440,97	141,31
441,18	172,54
441,38	137,21
441,59	184,32
441,79	165,37
442,00	182,27
442,21	140,80
442,41	170,49
442,62	113,66
442,83	188,93
443,03	131,07
443,24	223,23
443,44	209,40
443,65	190,97
443,86	132,09
444,06	112,64
444,27	175,10
444,48	116,22
444,68	160,77
444,89	105,98
445,09	139,26
445,30	176,13
445,51	193,02
445,71	145,41
445,92	167,93
446,12	132,61
446,33	199,16
446,54	215,04
446,74	148,48
446,95	179,20
447,15	172,54
447,36	177,66
447,57	91,13
447,77	108,54
447,98	196,61
448,18	81,92
448,39	60,93
448,59	140,29
448,80	127,49
449,01	182,27
449,21	112,13
449,42	144,89
449,62	185,34
449,83	107,52
450,04	145,41
450,24	146,43
450,45	139,77
450,65	147,45
450,86	201,72
451,06	174,08
451,27	159,23
451,47	20,48
451,68	173,57
451,89	109,57
452,09	87,04
452,30	124,93
452,50	209,92
452,71	198,14
452,91	128,51
453,12	191,49
453,33	185,85
453,53	98,81
453,74	101,37
453,94	140,80
454,15	132,09
454,35	174,59
454,56	121,34
454,76	222,20
454,97	203,77
455,17	132,09
455,38	100,35
455,58	92,16
455,79	167,42
456,00	202,24
456,20	33,28
456,41	188,93
456,61	124,93
456,82	192,51
457,02	140,80
457,23	248,83
457,43	159,23
457,64	135,17
457,84	72,70
458,05	177,15
458,25	137,73
458,46	132,61
458,66	131,07
458,87	41,47
459,07	153,09
459,28	203,77
459,48	178,69
459,69	124,41
459,89	210,94
460,10	182,78
460,30	158,21
460,51	100,35
460,71	209,40
460,92	165,89
461,12	193,53
461,33	59,90
461,53	87,04
461,74	102,91
461,94	168,45
462,15	87,04
462,35	126,46
462,56	154,62
462,76	126,97
462,97	126,97
463,17	62,98
463,38	166,40
463,58	205,82
463,79	135,17
463,99	105,47
464,20	195,07
464,40	123,90
464,61	182,27
464,81	219,64
465,02	168,96
465,22	160,77
465,43	69,63
465,63	203,26
465,83	133,12
466,04	186,37
466,24	124,93
466,45	242,17
466,65	220,16
466,86	217,08
467,06	95,23
467,27	192,51
467,47	201,21
467,68	252,92
467,88	165,37
468,08	222,72
468,29	189,44
468,49	197,12
468,70	192,51
468,90	165,37
469,11	222,20
469,31	140,80
469,52	130,56
469,72	188,41
469,92	179,20
470,13	172,54
470,33	189,44
470,54	178,17
470,74	217,08
470,95	148,48
471,15	191,49
471,35	102,40
471,56	156,67
471,76	193,02
471,97	188,41
472,17	158,72
472,38	120,32
472,58	196,09
472,78	238,08
472,99	217,08
473,19	202,75
473,40	159,74
473,60	183,29
473,80	194,56
474,01	174,59
474,21	189,95
474,42	216,06
474,62	218,11
474,83	206,33
475,03	205,82
475,23	194,05
475,44	195,58
475,64	210,43
475,85	200,19
476,05	169,47
476,25	210,43
476,46	186,88
476,66	168,96
476,86	254,46
477,07	293,88
477,27	311,80
477,48	180,73
477,68	190,97
477,88	250,36
478,09	153,09
478,29	242,68
478,50	209,40
478,70	283,13
478,90	249,34
479,11	310,27
479,31	315,39
479,51	447,99
479,72	389,63
479,92	285,18
480,12	431,10
480,33	400,38
480,53	505,85
480,74	514,55
480,94	586,74
481,14	670,20
481,35	670,20
481,55	708,09
481,75	708,60
481,96	890,35
482,16	884,72
482,36	1019,38
482,57	1192,43
482,77	1219,57
482,97	1373,16
483,18	1567,21
483,38	1760,74
483,58	1907,68
483,79	2098,14
483,99	2311,64
484,19	2480,60
484,40	2679,77
484,60	2823,64
484,80	3112,91
485,01	3316,17
485,21	3493,32
485,41	3732,94
485,62	4099,52
485,82	4275,65
486,02	4574,65
486,23	4931,00
486,43	5105,07
486,63	5250,48
486,84	5404,08
487,04	5335,47
487,24	5396,91
487,45	5313,45
487,65	5450,67
487,85	5367,21
488,06	5357,49
488,26	5093,30
488,46	5138,87
488,67	4907,96
488,87	4786,10
489,07	4623,80
489,27	4558,27
489,48	4314,05
489,68	4216,77
489,88	4138,94
490,09	3978,18
490,29	3819,46
490,49	3764,17
490,70	3798,47
490,90	3798,98
491,10	3616,20
491,30	3734,47
491,51	3584,46
491,71	3754,44
491,91	3643,85
492,12	3523,02
492,32	3348,43
492,52	3272,14
492,72	3141,58
492,93	3120,08
493,13	3031,51
493,33	3008,98
493,53	2943,44
493,74	2802,65
493,94	2782,68
494,14	2573,78
494,34	2693,59
494,55	2474,97
494,75	2458,59
494,95	2422,24
495,16	2423,77
495,36	2240,99
495,56	2267,10
495,76	2146,78
495,97	2116,58
496,17	2041,31
496,37	2063,84
496,57	1996,77
496,78	1851,36
496,98	1817,06
497,18	1817,57
497,38	1836,00
497,59	1696,74
497,79	1697,77
497,99	1646,57
498,19	1589,74
498,39	1518,06
498,60	1407,47
498,80	1390,57
499,00	1484,27
499,20	1292,78
499,41	1288,68
499,61	1236,46
499,81	1207,28
500,01	1226,73
500,22	1066,99
500,42	1015,79
500,62	1080,30
500,82	982,51
501,02	896,50
501,23	959,99
501,43	844,28
501,63	818,16
501,83	811,00
502,03	741,36
502,24	708,09
502,44	668,15
502,64	743,41
502,84	652,28
503,05	596,98
503,25	611,83
503,45	504,31
503,65	565,24
503,85	519,16
504,06	456,70
504,26	441,85
504,46	425,98
504,66	443,90
504,86	471,03
505,06	431,61
505,27	354,30
505,47	396,79
505,67	442,36
505,87	333,82
506,07	392,19
506,28	363,00
506,48	313,34
506,68	308,73
506,88	276,48
507,08	289,79
507,28	344,06
507,49	285,69
507,69	304,64
507,89	295,93
508,09	262,65
508,29	355,83
508,49	262,65
508,70	289,28
508,90	327,16
509,10	300,54
509,30	252,92
509,50	269,82
509,70	320,00
509,91	402,43
510,11	253,44
510,31	167,93
510,51	152,57
510,71	239,61
510,91	251,90
511,11	169,47
511,32	300,54
511,52	279,55
511,72	282,11
511,92	250,36
512,12	202,75
512,32	112,13
512,52	165,89
512,73	193,02
512,93	283,13
513,13	179,20
513,33	192,00
513,53	276,99
513,73	309,24
513,93	243,20
514,13	195,58
514,34	229,88
514,54	279,55
514,74	222,20
514,94	260,60
515,14	230,91
515,34	186,37
515,54	207,36
515,74	241,66
515,94	190,46
516,15	208,38
516,35	275,45
516,55	218,11
516,75	284,16
516,95	203,77
517,15	173,05
517,35	173,57
517,55	230,40
517,75	243,71
517,95	212,48
518,16	227,32
518,36	91,13
518,56	144,38
518,76	237,05
518,96	226,30
519,16	158,72
519,36	243,71
519,56	273,92
519,76	196,09
519,96	135,68
520,16	239,61
520,37	96,77
520,57	231,93
520,77	215,04
520,97	177,66
521,17	168,96
521,37	210,43
521,57	174,08
521,77	167,93
521,97	194,56
522,17	177,66
522,37	240,12
522,57	197,12
522,77	162,30
522,97	221,18
523,17	147,45
523,37	153,09
523,58	239,10
523,78	77,82
523,98	204,80
524,18	259,07
524,38	199,16
524,58	264,19
524,78	203,77
524,98	171,52
525,18	171,01
525,38	174,59
525,58	164,86
525,78	146,94
525,98	182,27
526,18	261,12
526,38	172,54
526,58	245,24
526,78	215,55
526,98	159,74
527,18	265,72
527,38	242,68
527,58	273,40
527,78	257,53
527,98	296,44
528,18	262,65
528,38	261,63
528,58	236,54
528,78	263,68
528,98	306,68
529,18	232,44
529,38	209,92
529,58	213,50
529,78	295,42
529,98	264,70
530,18	265,72
530,38	352,76
530,58	299,52
530,78	318,97
530,98	273,92
531,18	358,91
531,38	408,57
531,58	431,61
531,78	416,76
531,98	361,47
532,18	454,65
532,38	518,65
532,58	694,77
532,78	688,63
532,98	976,88
533,18	988,66
533,38	1147,37
533,58	1163,25
533,78	1229,81
533,98	1127,41
534,18	1105,39
534,38	1132,53
534,58	894,45
534,78	1046,51
534,98	939,51
535,18	998,38
535,38	1151,47
535,58	1068,02
535,78	1055,22
535,98	1145,84
536,18	1246,19
536,38	1445,35
536,58	1649,64
536,78	1830,88
536,98	2031,07
537,18	2467,80
537,38	2593,75
537,58	3059,67
537,78	3318,22
537,98	3619,27
538,17	3896,77
538,37	3964,87
538,57	4196,80
538,77	4394,94
538,97	4792,76
539,17	5180,34
539,37	5708,20
539,57	6300,58
539,77	7296,91
539,97	8204,67
540,17	9471,34
540,37	10857,31
540,57	12498,24
540,77	14769,95
540,97	16982,27
541,16	19701,46
541,36	22541,48
541,56	24798,34
541,76	26220,66
541,96	27381,34
542,16	26876,01
542,36	26430,06
542,56	25058,43
542,76	24086,67
542,96	22524,58
543,16	21506,74
543,36	20823,23
543,55	20397,77
543,75	20218,57
543,95	20144,33
544,15	20093,65
544,35	19961,04
544,55	20109,01
544,75	19978,96
544,95	20533,45
545,15	21959,86
545,35	26100,34
545,54	30022,20
545,74	34489,84
545,94	38903,21
546,14	42453,88
546,34	41562,50
546,54	38994,86
546,74	34657,26
546,94	29743,16
547,14	25743,99
547,33	22833,83
547,53	20616,90
547,73	19388,12
547,93	17855,73
548,13	16497,41
548,33	15212,82
548,53	14441,25
548,72	13327,67
548,92	12757,82
549,12	11933,51
549,32	11315,03
549,52	10655,58
549,72	10192,74
549,92	9564,01
550,12	8937,85
550,31	8694,14
550,51	7956,87
550,71	7661,45
550,91	7079,83
551,11	6594,46
551,31	6307,23
551,50	5961,13
551,70	5630,89
551,90	5291,95
552,10	4872,12
552,30	4639,16
552,50	4481,47
552,70	4117,44
552,89	3874,76
553,09	3848,65
553,29	3565,00
553,49	3480,01
553,69	3232,21
553,88	2996,69
554,08	2780,12
554,28	2738,65
554,48	2504,67
554,68	2415,58
554,88	2114,53
555,07	2058,72
555,27	1843,17
555,47	1791,46
555,67	1583,08
555,87	1537,51
556,06	1469,93
556,26	1406,95
556,46	1319,40
556,66	1297,39
556,86	1237,49
557,06	1171,95
557,25	1104,37
557,45	893,43
557,65	1030,64
557,85	1049,58
558,05	945,14
558,24	907,25
558,44	983,54
558,64	806,90
558,84	883,70
559,03	865,78
559,23	857,59
559,43	812,02
559,63	763,38
559,83	698,87
560,02	695,80
560,22	724,47
560,42	667,13
560,62	705,53
560,82	627,19
561,01	599,54
561,21	641,53
561,41	672,25
561,61	695,29
561,80	629,24
562,00	581,11
562,20	574,97
562,40	620,02
562,59	580,60
562,79	525,30
562,99	624,12
563,19	638,97
563,38	602,61
563,58	606,20
563,78	530,94
563,98	531,45
564,17	475,13
564,37	510,97
564,57	617,97
564,77	480,25
564,96	515,58
565,16	487,93
565,36	562,68
565,56	484,86
565,75	470,52
565,95	476,15
566,15	443,90
566,35	408,06
566,54	454,14
566,74	455,67
566,94	428,03
567,14	466,94
567,33	507,38
567,53	548,34
567,73	477,18
567,92	510,97
568,12	460,79
568,32	497,66
568,52	478,20
568,71	380,41
568,91	405,50
569,11	484,34
569,30	422,91
569,50	476,15
569,70	394,75
569,90	400,38
570,09	389,11
570,29	440,31
570,49	409,08
570,68	360,44
570,88	327,16
571,08	328,19
571,27	375,80
571,47	372,73
571,67	387,07
571,87	253,95
572,06	352,25
572,26	284,16
572,46	353,27
572,65	252,41
572,85	312,32
573,05	324,60
573,24	299,00
573,44	334,84
573,64	342,01
573,83	388,60
574,03	369,66
574,23	344,57
574,42	344,57
574,62	394,75
574,82	328,70
575,01	382,97
575,21	407,03
575,41	475,13
575,60	446,46
575,80	611,83
576,00	953,84
576,19	1638,37
576,39	2414,04
576,59	3369,42
576,78	4275,65
576,98	4879,29
577,18	4936,63
577,37	4702,65
577,57	4197,31
577,77	3530,19
577,96	2806,74
578,16	2824,15
578,35	3135,44
578,55	3712,46
578,75	4304,32
578,94	4848,57
579,14	5360,05
579,34	5422,51
579,53	5105,07
579,73	4816,82
579,93	4629,95
580,12	4358,59
580,32	4293,57
580,51	4289,98
580,71	4187,07
580,91	3947,97
581,10	3668,42
581,30	3503,05
581,50	3443,66
581,69	3339,73
581,89	3515,85
582,08	3715,53
582,28	3923,91
582,48	4177,86
582,67	4235,71
582,87	4329,41
583,06	4586,43
583,26	4745,66
583,46	4685,75
583,65	4705,21
583,85	4835,77
584,04	4748,22
584,24	4676,54
584,44	4522,94
584,63	4542,91
584,83	4391,87
585,02	4367,81
585,22	4244,93
585,42	4115,39
585,61	4045,76
585,81	3986,37
586,00	4051,39
586,20	4326,85
586,39	4609,98
586,59	5183,92
586,79	6100,39
586,98	6779,29
587,18	7267,73
587,37	7772,55
587,57	7827,34
587,76	7455,63
587,96	6949,27
588,16	6183,33
588,35	5482,92
588,55	4686,78
588,74	4378,56
588,94	3823,05
589,13	3628,49
589,33	3296,72
589,52	2986,45
589,72	2907,60
589,92	2784,21
590,11	2783,70
590,31	2758,61
590,50	2899,41
590,70	2882,52
590,89	2963,41
591,09	3089,36
591,28	3221,45
591,48	3346,38
591,67	3587,02
591,87	3849,16
592,06	4143,55
592,26	4474,81
592,46	5076,91
592,65	5600,68
592,85	5959,08
593,04	6325,66
593,24	6464,93
593,43	6452,13
593,63	6135,71
593,82	5788,07
594,02	5203,89
594,21	4727,22
594,41	4279,23
594,60	3713,48
594,80	3363,28
594,99	3113,94
595,19	2923,99
595,38	2688,98
595,58	2575,83
595,77	2463,19
595,97	2375,13
596,16	2215,39
596,36	2186,21
596,55	2176,99
596,75	2206,17
596,94	2070,50
597,14	2165,73
597,33	2201,05
597,53	2271,20
597,72	2397,66
597,92	2440,15
598,11	2679,26
598,31	2864,60
598,50	3078,61
598,70	3255,76
598,89	3462,09
599,09	3741,13
599,28	4014,53
599,48	4050,37
599,67	4317,12
599,87	4182,98
600,06	4021,19
600,26	3682,25
600,45	3574,22
600,64	3273,68
600,84	3118,54
601,03	2842,07
601,23	2629,59
601,42	2431,45
601,62	2334,68
601,81	2030,56
602,01	1945,57
602,20	1802,21
602,40	1701,35
602,59	1571,30
602,78	1590,25
602,98	1539,56
603,17	1497,58
603,37	1537,51
603,56	1649,64
603,76	1530,86
603,95	1526,76
604,15	1543,66
604,34	1540,58
604,53	1502,70
604,73	1596,39
604,92	1558,50
605,12	1741,29
605,31	1712,10
605,51	1785,32
605,70	1804,26
605,89	1847,27
606,09	1847,27
606,28	1893,86
606,48	2104,80
606,67	2192,35
606,87	2247,65
607,06	2332,12
607,25	2586,58
607,45	2841,56
607,64	2926,04
607,84	3278,29
608,03	3492,30
608,22	3762,12
608,42	4086,72
608,61	4479,93
608,81	5115,83
609,00	5778,86
609,19	6623,13
609,39	7572,88
609,58	8849,27
609,78	10806,11
609,97	13194,04
610,16	16886,53
610,36	21985,97
610,55	28438,61
610,75	36163,03
610,94	43444,07
611,13	49825,03
611,33	54197,44
611,52	55487,67
611,71	54173,89
611,91	51274,48
612,10	46889,27
612,30	41475,46
612,49	36793,81
612,68	33207,30
612,88	29430,33
613,07	26680,42
613,26	24853,64
613,46	22821,54
613,65	20989,63
613,84	20048,08
614,04	18789,09
614,23	17926,89
614,43	17349,88
614,62	16573,19
614,81	15847,69
615,01	14774,56
615,20	13764,40
615,39	12682,56
615,59	11659,60
615,78	10501,98
615,97	9550,70
616,17	8754,04
616,36	8045,45
616,55	7352,21
616,75	6634,39
616,94	6109,09
617,13	5618,60
617,33	5179,82
617,52	4794,29
617,71	4480,44
617,91	4283,33
618,10	4079,04
618,29	3807,69
618,49	3706,82
618,68	3529,67
618,87	3392,97
619,07	3333,58
619,26	3202,00
619,45	3304,91
619,65	3193,30
619,84	3253,71
620,03	3182,03
620,22	3236,81
620,42	3196,37
620,61	3300,81
620,80	3323,85
621,00	3446,22
621,19	3432,40
621,38	3459,53
621,58	3273,68
621,77	3443,66
621,96	3459,53
622,15	3511,75
622,35	3564,49
622,54	3529,16
622,73	3639,24
622,93	3706,31
623,12	3729,86
623,31	3891,65
623,50	4020,67
623,70	4130,75
623,89	4079,55
624,08	4146,62
624,28	4094,91
624,47	4111,30
624,66	4152,26
624,85	4282,30
625,05	4160,96
625,24	4167,10
625,43	4282,81
625,62	4277,18
625,82	4409,79
626,01	4272,06
626,20	4369,85
626,39	4344,77
626,59	4343,74
626,78	4346,81
626,97	4370,88
627,17	4209,60
627,36	4199,87
627,55	4122,56
627,74	4092,87
627,93	4154,82
628,13	4081,60
628,32	3992,52
628,51	4005,83
628,70	3987,91
628,90	3986,37
629,09	3932,61
629,28	4088,77
629,47	4326,33
629,67	4496,32
629,86	4844,98
630,05	5348,27
630,24	5803,43
630,44	6392,22
630,63	6953,88
630,82	7423,89
631,01	7647,12
631,20	7724,94
631,40	7375,25
631,59	6889,88
631,78	6246,82
631,97	5329,33
632,16	4763,58
632,36	4121,03
632,55	3472,84
632,74	3093,46
632,93	2612,18
633,13	2288,09
633,32	2090,98
633,51	1825,76
633,70	1713,13
633,89	1496,04
634,09	1387,50
634,28	1319,92
634,47	1232,37
634,66	1105,90
634,85	1145,33
635,04	1082,86
635,24	1013,74
635,43	934,90
635,62	875,51
635,81	969,71
636,00	904,18
636,20	965,11
636,39	802,29
636,58	842,23
636,77	819,70
636,96	783,35
637,15	753,65
637,35	769,52
637,54	764,40
637,73	771,06
637,92	767,48
638,11	770,55
638,30	680,95
638,50	695,80
638,69	701,43
638,88	645,62
639,07	655,35
639,26	696,31
639,45	699,89
639,64	629,24
639,84	597,49
640,03	643,06
640,22	587,77
640,41	726,00
640,60	620,02
640,79	638,45
640,98	669,17
641,18	607,73
641,37	699,38
641,56	701,43
641,75	634,36
641,94	647,16
642,13	590,33
642,32	589,30
642,52	601,59
642,71	604,66
642,90	716,28
643,09	628,73
643,28	633,85
643,47	593,40
643,66	646,13
643,85	566,26
644,04	680,95
644,24	618,49
644,43	645,62
644,62	550,90
644,81	608,25
645,00	682,49
645,19	658,42
645,38	631,29
645,57	707,06
645,76	606,71
645,96	613,88
646,15	589,30
646,34	609,27
646,53	532,47
646,72	642,04
646,91	666,61
647,10	599,54
647,29	664,57
647,48	641,53
647,67	670,71
647,86	671,22
648,05	581,11
648,25	631,29
648,44	602,61
648,63	754,16
648,82	759,80
649,01	697,33
649,20	819,19
649,39	938,48
649,58	1136,62
649,77	1282,03
649,96	1548,26
650,15	1736,68
650,34	1810,92
650,53	1969,63
650,72	2047,97
650,91	1968,10
651,11	1913,83
651,30	1774,56
651,49	1524,71
651,68	1428,97
651,87	1313,26
652,06	1230,32
652,25	1184,75
652,44	1158,13
652,63	1036,78
652,82	1218,54
653,01	1129,45
653,20	1150,96
653,39	1111,02
653,58	1030,13
653,77	974,83
653,96	897,01
654,15	933,36
654,34	884,72
654,53	808,95
654,72	793,08
654,91	745,46
655,10	736,76
655,29	632,31
655,48	718,33
655,67	579,58
655,86	629,24
656,05	633,85
656,24	547,32
656,43	645,11
656,62	603,13
656,81	645,62
657,00	721,91
657,19	693,75
657,38	685,56
657,57	681,46
657,76	729,08
657,95	658,42
658,14	725,49
658,33	673,78
658,52	563,19
658,71	605,69
658,90	554,49
659,09	549,88
659,28	497,14
659,47	402,94
659,66	403,96
659,85	419,32
660,04	456,19
660,23	517,11
660,42	433,66
660,61	455,67
660,80	475,13
660,99	461,30
661,18	572,92
661,37	582,65
661,56	744,44
661,75	870,39
661,94	954,35
662,13	1084,91
662,32	1100,27
662,51	1240,56
662,70	1295,85
662,89	1081,84
663,08	1127,41
663,27	1076,72
663,46	892,91
663,65	922,61
663,83	857,07
664,02	773,11
664,21	706,55
664,40	635,89
664,59	632,82
664,78	572,92
664,97	583,67
665,16	428,54
665,35	530,94
665,54	473,08
665,73	437,75
665,92	532,98
666,11	382,46
666,30	427,00
666,49	462,33
666,67	409,59
666,86	463,86
667,05	468,98
667,24	491,51
667,43	370,68
667,62	414,71
667,81	405,50
668,00	456,70
668,19	410,11
668,38	437,75
668,57	452,60
668,76	486,39
668,94	343,55
669,13	442,36
669,32	417,79
669,51	360,95
669,70	405,50
669,89	328,19
670,08	428,03
670,27	375,29
670,46	385,53
670,64	315,39
670,83	404,47
671,02	319,48
671,21	376,83
671,40	346,11
671,59	384,51
671,78	357,88
671,97	325,12
672,16	334,84
672,34	365,05
672,53	404,99
672,72	301,56
672,91	377,85
673,10	354,81
673,29	352,76
673,48	308,73
673,66	288,76
673,85	395,77
674,04	386,55
674,23	327,67
674,42	256,00
674,61	374,27
674,80	342,01
674,98	242,17
675,17	324,09
675,36	258,56
675,55	308,22
675,74	314,36
675,93	341,50
676,12	283,13
676,30	323,07
676,49	221,18
676,68	318,97
676,87	302,59
677,06	319,48
677,25	289,28
677,43	318,46
677,62	294,40
677,81	314,36
678,00	353,79
678,19	291,32
678,37	302,59
678,56	320,00
678,75	270,33
678,94	303,61
679,13	295,93
679,32	320,51
679,50	361,98
679,69	386,55
679,88	308,22
680,07	398,84
680,26	374,78
680,44	452,09
680,63	329,21
680,82	332,28
681,01	313,85
681,20	396,79
681,38	405,50
681,57	336,38
681,76	343,03
681,95	326,14
682,14	310,27
682,32	277,50
682,51	283,13
682,70	321,53
682,89	305,15
683,07	272,89
683,26	306,68
683,45	302,59
683,64	363,00
683,83	324,09
684,01	270,33
684,20	295,42
684,39	349,69
684,58	252,92
684,76	315,39
684,95	316,92
685,14	292,86
685,33	359,42
685,52	423,93
685,70	420,86
685,89	373,75
686,08	548,34
686,27	389,11
686,45	562,68
686,64	617,97
686,83	751,60
687,02	805,88
687,20	914,42
687,39	906,23
687,58	953,84
687,76	949,75
687,95	1034,22
688,14	1076,72
688,33	949,75
688,51	934,39
688,70	824,82
688,89	775,67
689,08	685,05
689,26	598,01
689,45	546,30
689,64	542,20
689,83	431,10
690,01	355,83
690,20	411,64
690,39	399,35
690,57	437,75
690,76	347,13
690,95	365,56
691,14	371,71
691,32	310,27
691,51	263,16
691,70	400,89
691,88	304,12
692,07	317,44
692,26	289,28
692,44	331,26
692,63	411,64
692,82	433,66
693,01	443,90
693,19	536,06
693,38	672,25
693,57	694,77
693,75	755,19
693,94	740,85
694,13	587,77
694,31	624,12
694,50	545,27
694,69	559,10
694,87	423,93
695,06	350,20
695,25	306,68
695,43	373,24
695,62	259,07
695,81	247,29
695,99	331,77
696,18	263,68
696,37	244,73
696,55	318,46
696,74	269,82
696,93	368,63
697,11	278,01
697,30	204,80
697,49	133,12
697,67	232,44
697,86	196,09
698,05	194,05
698,23	124,93
698,42	206,84
698,61	195,58
698,79	168,96
698,98	180,73
699,17	176,13
699,35	137,21
699,54	199,16
699,72	172,03
699,91	193,53
700,10	184,83
700,28	175,61
700,47	203,26
700,66	62,46
700,84	263,68
701,03	226,81
701,21	249,85
701,40	202,24
701,59	202,24
701,77	202,75
701,96	315,39
702,15	281,08
702,33	227,84
702,52	230,40
702,70	271,87
702,89	302,08
703,08	243,71
703,26	315,39
703,45	286,72
703,63	407,03
703,82	385,02
704,01	455,67
704,19	486,39
704,38	478,71
704,56	536,57
704,75	540,66
704,94	606,20
705,12	669,17
705,31	783,35
705,49	800,24
705,68	874,99
705,86	1144,30
706,05	1205,23
706,24	1478,12
706,42	1700,84
706,61	1696,74
706,79	1883,11
706,98	1966,56
707,17	2048,48
707,35	1951,71
707,54	1776,10
707,72	1821,67
707,91	1827,81
708,09	1827,81
708,28	2000,87
708,46	2096,61
708,65	2357,72
708,84	2447,32
709,02	2370,01
709,21	2479,58
709,39	2264,54
709,58	2110,43
709,76	1724,90
709,95	1557,99
710,13	1315,82
710,32	1239,53
710,50	1061,36
710,69	1013,74
710,88	1005,04
711,06	1020,91
711,25	1084,40
711,43	1283,05
711,62	1425,90
711,80	1541,10
711,99	1642,98
712,17	1839,08
712,36	1932,77
712,54	1869,28
712,73	1806,82
712,91	1674,21
713,10	1529,83
713,28	1263,60
713,47	1026,54
713,65	967,67
713,84	800,76
714,02	716,79
714,21	620,53
714,39	600,57
714,58	412,15
714,76	434,17
714,95	374,27
715,13	286,72
715,32	291,32
715,50	251,39
715,69	305,15
715,87	208,89
716,06	210,94
716,24	161,79
716,43	206,33
716,61	216,57
716,80	177,15
716,98	72,19
717,17	267,26
717,35	267,26
717,54	135,17
717,72	95,74
717,91	143,36
718,09	124,93
718,28	136,19
718,46	167,93
718,65	143,36
718,83	113,66
719,01	142,85
719,20	79,87
719,38	144,89
719,57	192,51
719,75	102,40
719,94	136,70
720,12	169,47
720,31	163,33
720,49	133,63
720,68	164,86
720,86	177,66
721,04	161,28
721,23	104,96
721,41	111,10
721,60	157,18
721,78	142,85
721,97	149,50
722,15	182,27
722,34	196,61
722,52	184,83
722,70	112,64
722,89	144,89
723,07	150,53
723,26	155,13
723,44	105,98
723,63	137,73
723,81	79,36
723,99	187,39
724,18	127,49
724,36	142,85
724,55	177,15
724,73	107,01
724,91	105,98
725,10	164,35
725,28	113,15
725,47	249,34
725,65	148,99
725,83	190,46
726,02	152,06
726,20	216,57
726,39	90,11
726,57	178,69
726,75	31,23
726,94	107,01
727,12	223,74
727,31	80,38
727,49	111,10
727,67	201,21
727,86	138,75
728,04	104,96
728,23	175,10
728,41	138,75
728,59	80,38
728,78	215,04
728,96	144,38
729,14	143,87
729,33	69,12
729,51	75,77
729,69	142,85
729,88	112,64
730,06	128,00
730,25	159,74
730,43	219,13
730,61	224,25
730,80	141,31
730,98	134,65
731,16	153,09
731,35	135,17
731,53	153,09
731,71	115,20
731,90	103,93
732,08	82,43
732,26	114,17
732,45	61,44
732,63	159,74
732,81	78,33
733,00	116,73
733,18	164,86
733,36	143,36
733,55	194,05
733,73	163,84
733,91	13,31
734,10	88,06
734,28	113,15
734,46	102,91
734,65	168,45
734,83	139,26
735,01	104,96
735,20	178,69
735,38	35,84
735,56	118,27
735,75	132,09
735,93	57,86
736,11	227,84
736,30	119,29
736,48	83,97
736,66	89,09
736,84	202,75
737,03	174,59
737,21	103,93
737,39	64,51
737,58	242,17
737,76	69,63
737,94	113,15
738,12	185,85
738,31	230,40
738,49	188,93
738,67	167,42
738,86	217,60
739,04	204,80
739,22	197,12
739,40	207,36
739,59	105,47
739,77	115,71
739,95	154,11
740,14	101,37
740,32	114,69
740,50	154,11
740,68	122,88
740,87	115,20
741,05	239,61
741,23	141,31
741,41	108,54
741,60	194,56
741,78	199,16
741,96	248,32
742,14	85,50
742,33	96,77
742,51	212,99
742,69	172,54
742,87	108,03
743,06	146,43
743,24	77,31
743,42	229,88
743,60	109,05
743,79	142,33
743,97	169,47
744,15	99,33
744,33	123,90
744,52	36,86
744,70	118,27
744,88	137,73
745,06	186,88
745,24	120,32
745,43	123,39
745,61	88,57
745,79	95,74
745,97	176,64
746,16	136,70
746,34	173,05
746,52	216,06
746,70	103,42
746,88	183,81
747,07	123,39
747,25	63,49
747,43	144,89
747,61	152,06
747,79	188,41
747,98	144,38
748,16	158,21
748,34	96,77
748,52	10,75
748,70	68,09
748,89	194,05
749,07	64,00
749,25	118,27
749,43	107,52
749,61	171,52
749,79	264,70
749,98	210,43
750,16	124,93
750,34	199,68
750,52	271,87
750,70	216,57
750,88	210,94
751,07	336,89
751,25	182,27
751,43	204,28
751,61	115,71
751,79	205,31
751,97	226,81
752,16	143,36
752,34	167,42
752,52	146,94
752,70	230,91
752,88	142,33
753,06	212,48
753,25	108,54
753,43	112,13
753,61	101,37
753,79	11,78
753,97	131,58
754,15	89,09
754,33	123,39
754,52	139,26
754,70	32,77
754,88	139,26
755,06	129,53
755,24	173,05
755,42	113,66
755,60	112,64
755,78	144,89
755,97	165,37
756,15	79,36
756,33	86,01
756,51	146,94
756,69	60,42
756,87	82,43
757,05	78,85
757,23	30,21
757,41	126,46
757,60	45,57
757,78	101,37
757,96	77,31
758,14	23,55
758,32	50,69
758,50	90,11
758,68	145,41
758,86	162,81
759,04	99,33
759,22	126,46
759,41	33,28
759,59	137,21
759,77	179,20
759,95	34,82
760,13	133,12
760,31	145,41
760,49	147,97
760,67	93,69
760,85	-15,87
761,03	144,38
761,21	103,42
761,39	82,43
761,57	117,76
761,76	149,50
761,94	177,15
762,12	152,06
762,30	150,01
762,48	246,78
762,66	187,90
762,84	321,53
763,02	359,93
763,20	478,71
763,38	507,90
763,56	519,67
763,74	517,62
763,92	437,24
764,10	498,17
764,28	316,41
764,46	283,13
764,64	347,13
764,82	296,96
765,00	217,60
765,19	141,82
765,37	165,37
765,55	132,61
765,73	119,81
765,91	148,48
766,09	117,25
766,27	156,67
766,45	91,65
766,63	131,07
766,81	161,28
766,99	134,65
767,17	63,49
767,35	130,05
767,53	104,96
767,71	130,56
767,89	95,23
768,07	98,81
768,25	99,33
768,43	100,35
768,61	87,04
768,79	125,95
768,97	105,47
769,15	100,86
769,33	101,89
769,51	99,33
769,69	37,38
769,87	133,63
770,05	132,61
770,23	135,17
770,41	93,18
770,59	64,51
770,77	58,88
770,95	148,99
771,13	91,13
771,31	48,13
771,49	94,72
771,67	176,64
771,85	238,59
772,03	240,64
772,21	172,03
772,38	222,20
772,56	259,58
772,74	227,32
772,92	202,75
773,10	225,79
773,28	204,80
773,46	50,18
773,64	193,53
773,82	147,97
774,00	133,63
774,18	240,12
774,36	94,72
774,54	121,85
774,72	134,14
774,90	47,10
775,08	120,32
775,26	239,10
775,44	105,47
775,62	101,89
775,80	131,58
775,97	144,89
776,15	117,76
776,33	170,49
776,51	71,68
776,69	142,33
776,87	150,53
777,05	116,73
777,23	163,33
777,41	40,96
777,59	51,20
777,77	39,42
777,95	121,85
778,13	92,67
778,30	96,77
778,48	172,54
778,66	176,64
778,84	66,05
779,02	91,13
779,20	100,86
779,38	201,21
779,56	146,43
779,74	55,30
779,92	33,79
780,09	102,91
780,27	121,85
780,45	-14,34
780,63	144,38
780,81	114,69
780,99	138,24
781,17	131,58
781,35	61,44
781,52	115,71
781,70	137,21
781,88	135,68
782,06	187,90
782,24	165,37
782,42	153,60
782,60	91,65
782,78	77,82
782,95	177,15
783,13	99,84
783,31	98,30
783,49	104,45
783,67	87,55
783,85	177,15
784,03	98,81
784,20	35,33
784,38	122,88
784,56	103,42
784,74	75,26
784,92	63,49
785,10	140,29
785,28	140,80
785,45	198,65
785,63	153,60
785,81	105,47
785,99	95,23
786,17	173,57
786,35	82,43
786,52	82,43
786,70	112,13
786,88	62,46
787,06	130,05
787,24	161,79
787,41	117,76
787,59	108,54
787,77	52,22
787,95	60,42
788,13	83,45
788,31	20,99
788,48	124,41
788,66	54,78
788,84	82,94
789,02	124,93
789,20	81,41
789,37	102,91
789,55	229,37
789,73	126,46
789,91	170,49
790,09	139,77
790,26	68,61
790,44	67,58
790,62	46,08
790,80	153,09
790,98	148,99
791,15	134,65
791,33	138,24
791,51	159,23
791,69	68,09
791,86	159,23
792,04	163,33
792,22	92,67
792,40	51,71
792,58	86,53
792,75	98,30
792,93	177,66
793,11	76,29
793,29	82,43
793,46	117,76
793,64	167,42
793,82	120,32
794,00	109,57
794,17	248,32
794,35	141,31
794,53	198,65
794,71	191,49
794,88	176,13
795,06	153,60
795,24	205,82
795,42	208,89
795,59	111,10
795,77	148,99
795,95	107,52
796,13	146,43
796,30	81,41
796,48	179,20
796,66	169,98
796,83	186,37
797,01	81,41
797,19	48,64
797,37	140,29
797,54	102,91
797,72	88,06
797,90	218,62
798,08	-10,75
798,25	99,84
798,43	153,60
798,61	97,28
798,78	120,83
798,96	113,66
799,14	78,33
799,31	127,49
799,49	95,74
799,67	129,02
799,85	208,89
800,02	181,76
800,20	62,98
800,38	147,97
800,55	144,38
800,73	156,67
800,91	195,07
801,08	214,52
801,26	259,58
801,44	264,70
801,61	266,24
801,79	232,96
801,97	178,69
802,15	138,75
802,32	105,98
802,50	190,97
802,68	165,89
802,85	241,15
803,03	193,02
803,21	159,23
803,38	140,80
803,56	131,58
803,74	25,60
803,91	152,06
804,09	97,28
804,26	150,53
804,44	179,71
804,62	140,80
804,79	202,24
804,97	104,45
805,15	95,74
805,32	105,98
805,50	96,77
805,68	116,73
805,85	104,96
806,03	92,16
806,21	153,60
806,38	31,74
806,56	86,53
806,73	173,05
806,91	196,61
807,09	103,42
807,26	128,51
807,44	143,36
807,62	109,57
807,79	187,39
807,97	124,93
808,14	100,86
808,32	154,11
808,50	82,43
808,67	61,44
808,85	110,08
809,02	180,22
809,20	123,90
809,38	125,44
809,55	27,65
809,73	158,72
809,90	182,78
810,08	267,77
810,26	251,39
810,43	255,48
810,61	293,88
810,78	336,38
810,96	377,34
811,14	389,11
811,31	444,92
811,49	398,33
811,66	521,72
811,84	379,90
812,02	441,85
812,19	477,69
812,37	375,29
812,54	355,32
812,72	275,96
812,89	280,06
813,07	224,76
813,25	264,70
813,42	241,66
813,60	260,09
813,77	292,35
813,95	145,92
814,12	56,83
814,30	138,24
814,47	127,49
814,65	136,19
814,83	121,85
815,00	144,89
815,18	187,39
815,35	94,21
815,53	275,45
815,70	135,68
815,88	122,88
816,05	133,63
816,23	86,53
816,40	147,97
816,58	133,12
816,75	57,86
816,93	137,21
817,10	161,28
817,28	108,54
817,46	77,31
817,63	89,60
817,81	134,14
817,98	22,02
818,16	57,34
818,33	86,01
818,51	112,64
818,68	143,87
818,86	207,36
819,03	184,83
819,21	89,60
819,38	112,64
819,56	69,12
819,73	80,38
819,91	152,06
820,08	112,13
820,26	39,94
820,43	247,80
820,61	54,78
820,78	32,26
820,96	52,22
821,13	135,17
821,31	157,18
821,48	104,45
821,66	105,98
821,83	165,37
822,00	52,74
822,18	63,49
822,35	86,53
822,53	178,69
822,70	115,71
822,88	169,47
823,05	95,23
823,23	108,03
823,40	72,19
823,58	154,62
823,75	41,47
823,93	105,47
824,10	-8,70
824,28	66,56
824,45	111,61
824,62	58,37
824,80	125,44
824,97	116,73
825,15	141,82
825,32	93,69
825,50	109,05
825,67	134,14
825,85	196,09
826,02	54,27
826,19	120,32
826,37	200,19
826,54	175,61
826,72	109,57
826,89	125,95
827,07	124,93
827,24	169,47
827,41	149,50
827,59	132,61
827,76	86,53
827,94	98,81
828,11	233,47
828,28	87,55
828,46	117,25
828,63	145,92
828,81	93,18
828,98	99,33
829,15	195,58
829,33	59,39
829,50	73,21
829,68	96,25
829,85	100,86
830,02	112,13
830,20	151,04
830,37	117,76
830,55	158,72
830,72	152,57
830,89	49,15
831,07	105,47
831,24	178,69
831,42	93,69
831,59	101,89
831,76	81,92
831,94	98,30
832,11	167,42
832,28	173,05
832,46	81,92
832,63	94,72
832,81	139,26
832,98	98,81
833,15	73,21
833,33	61,95
833,50	138,24
833,67	118,78
833,85	112,64
834,02	143,36
834,19	69,12
834,37	120,32
834,54	156,67
834,71	74,24
834,89	189,95
835,06	90,11
835,23	85,50
835,41	77,82
835,58	175,61
835,75	79,87
835,93	51,20
836,10	120,83
836,27	118,78
836,45	246,78
836,62	103,42
836,79	114,17
836,97	126,46
837,14	168,45
837,31	126,97
837,49	135,17
837,66	89,09
837,83	124,93
838,01	86,01
838,18	167,93
838,35	56,32
838,53	143,87
838,70	62,46
838,87	120,32
839,04	34,30
839,22	224,25
839,39	73,73
839,56	116,73
839,74	118,78
839,91	134,14
840,08	132,09
840,26	156,67
840,43	112,13
840,60	189,44
840,77	134,14
840,95	236,03
841,12	125,44
841,29	193,53
841,46	220,16
841,64	185,85
841,81	206,33
841,98	133,63
842,16	208,38
842,33	236,03
842,50	281,60
842,67	164,35
842,85	210,94
843,02	261,12
843,19	210,43
843,36	235,00
843,54	203,26
843,71	184,32
843,88	90,11
844,05	118,78
844,23	137,73
844,40	114,17
844,57	94,21
844,74	169,47
844,92	148,99
845,09	83,97
845,26	151,04
845,43	66,05
845,61	105,98
845,78	198,65
845,95	111,10
846,12	197,63
846,29	140,80
846,47	176,64
846,64	114,69
846,81	28,16
846,98	22,02
847,16	93,69
847,33	100,35
847,50	75,26
847,67	34,30
847,84	136,19
848,02	118,27
848,19	23,55
848,36	115,71
848,53	90,11
848,70	132,09
848,88	91,13
849,05	176,13
849,22	87,55
849,39	71,68
849,56	-18,94
849,74	57,34
849,91	144,89
850,08	148,99
850,25	90,11
850,42	177,15
850,60	166,91
850,77	161,79
850,94	142,85
851,11	147,97
851,28	96,25
851,45	142,85
851,63	160,25
851,80	166,40
851,97	109,57
852,14	186,37
852,31	185,34
852,48	118,78
852,66	101,89
852,83	161,28
853,00	164,86
853,17	150,53
853,34	141,82
853,51	163,33
853,68	113,66
853,86	97,79
854,03	155,65
854,20	108,03
854,37	71,17
854,54	219,13
854,71	120,32
854,88	134,14
855,06	125,95
855,23	174,08
855,40	111,10
855,57	31,74
855,74	119,81
855,91	153,09
856,08	107,52
856,25	181,25
856,43	76,80
856,60	51,71
856,77	158,72
856,94	120,32
857,11	94,72
857,28	131,07
857,45	146,94
857,62	50,18
857,79	140,29
857,97	158,21
858,14	118,27
858,31	191,49
858,48	133,12
858,65	104,96
858,82	79,36
858,99	84,99
859,16	38,91
859,33	8,19
859,50	116,73
859,67	51,20
859,85	110,59
860,02	34,82
860,19	124,93
860,36	71,68
860,53	151,04
860,70	124,41
860,87	127,49
861,04	198,65
861,21	137,21
861,38	207,87
861,55	74,75
861,72	99,84
861,89	86,53
862,06	74,75
862,23	101,89
862,41	89,09
862,58	141,31
862,75	138,24
862,92	141,31
863,09	57,86
863,26	90,62
863,43	117,76
863,60	144,89
863,77	132,09
863,94	109,57
864,11	172,03
864,28	81,92
864,45	39,94
864,62	199,68
864,79	183,81
864,96	148,48
865,13	154,62
865,30	110,59
865,47	175,10
865,64	22,53
865,81	130,56
865,98	190,46
866,15	93,18
866,32	217,60
866,49	180,73
866,66	139,77
866,83	108,54
867,00	83,45
867,17	188,41
867,34	43,01
867,51	197,12
867,68	80,89
867,85	189,95
868,02	168,96
868,19	119,29
868,36	127,49
868,53	122,88
868,70	55,30
868,87	75,26
869,04	195,58
869,21	109,57
869,38	98,30
869,55	72,19
869,72	163,84
869,89	100,35
870,06	120,83
870,23	80,38
870,40	102,40
870,57	87,04
870,74	66,56
870,91	180,73
871,08	23,04
871,25	116,22
871,42	76,29
871,59	153,60
871,76	109,57
871,93	33,79
872,10	69,12
872,27	232,44
872,44	78,85
872,60	94,72
872,77	177,15
872,94	88,06
873,11	104,96
873,28	144,89
873,45	106,49
873,62	193,53
873,79	92,67
873,96	21,50
874,13	177,66
874,30	-1,02
874,47	108,54
874,64	166,40
874,81	57,86
874,97	138,75
875,14	117,25
875,31	60,42
875,48	93,18
875,65	125,44
875,82	97,28
875,99	147,45
876,16	189,95
876,33	172,03
876,50	105,47
876,67	102,40
876,83	121,85
877,00	69,63
877,17	194,05
877,34	24,58
877,51	120,83
877,68	120,32
877,85	24,58
878,02	94,21
878,19	92,67
878,35	119,81
878,52	144,38
878,69	84,48
878,86	65,02
879,03	58,37
879,20	192,00
879,37	152,06
879,54	103,42
879,70	159,23
879,87	90,11
880,04	158,21
880,21	102,91
880,38	131,58
880,55	113,66
880,72	136,70
880,89	73,21
881,05	160,25
881,22	86,53
881,39	98,30
881,56	163,84
881,73	105,47
881,90	146,43
882,06	112,13
882,23	48,13
882,40	80,38
882,57	114,69
882,74	140,80
882,91	157,69
883,07	58,88
883,24	134,65
883,41	40,96
883,58	130,56
883,75	87,04
883,92	65,02
884,08	94,72
884,25	94,72
884,42	81,41
884,59	147,45
884,76	125,95
884,92	62,98
885,09	128,00
885,26	149,50
885,43	118,27
885,60	136,70
885,76	103,93
885,93	73,21
886,10	136,70
886,27	124,93
886,44	145,41
886,60	230,91
886,77	92,67
886,94	40,96
887,11	86,01
887,28	100,35
887,44	168,45
887,61	76,80
887,78	139,26
887,95	101,89
888,12	155,13
888,28	91,65
888,45	91,13
888,62	118,78
888,79	111,10
888,95	53,25
889,12	96,77
889,29	148,48
889,46	70,14
889,62	171,01
889,79	162,81
889,96	106,49
890,13	122,88
890,29	143,87
890,46	102,40
890,63	122,37
890,80	95,74
890,96	114,69
891,13	118,78
891,30	114,69
891,47	90,11
891,63	201,21
891,80	168,45
891,97	131,07
892,14	125,95
892,30	124,41
892,47	193,53
892,64	88,57
892,80	89,60
892,97	94,72
893,14	72,19
893,31	110,59
893,47	75,26
893,64	174,59
893,81	174,08
893,97	150,01
894,14	144,38
>>>>>End Processed Spectral Data<<<<<
