SpectraSuite Datei
++++++++++++++++++++++++++++++++++++
Datum: Mon Dec 11 15:18:35 CET 2017
Benutzer: Praktikum-Pc1
Dark-Spektrum vorhanden: Ja
Referenz-Spektrum vorhanden: Nein
Zahl der probierten Teilspektren: 1
Spektrometer: USB4H10187
Integrationszeit (usec): 150000 (USB4H10187)
Spektren Durchschnitt berechnet: 4 (USB4H10187)
Boxcar Glättung: 0 (USB4H10187)
Dunkelstromkorrektur: Nein (USB4H10187)
Puls/Lampe aktiviert: Nein (USB4H10187)
Correct for Detector Non-linearity: Nein (USB4H10187)
Streulichtkorrektur: Nein (USB4H10187)
Anzahl Pixel in verarbeitetem Spektrum: 3648
>>>>>Begin Processed Spectral Data<<<<<
176,80	-30,21
177,02	-30,21
177,24	-30,21
177,46	23,55
177,68	18,43
177,91	132,09
178,13	161,79
178,35	137,73
178,57	70,65
178,79	186,37
179,02	227,32
179,24	83,45
179,46	176,13
179,68	78,33
179,90	112,13
180,12	171,01
180,35	147,97
180,57	85,50
180,79	122,88
181,01	98,30
181,23	35,33
181,46	110,59
181,68	142,85
181,90	76,80
182,12	144,89
182,34	187,39
182,56	112,13
182,79	63,49
183,01	102,91
183,23	72,19
183,45	124,41
183,67	35,84
183,89	110,08
184,12	115,20
184,34	119,81
184,56	181,25
184,78	102,40
185,00	176,13
185,22	88,57
185,45	90,62
185,67	122,37
185,89	166,40
186,11	124,41
186,33	134,14
186,55	124,41
186,77	141,82
187,00	123,90
187,22	111,61
187,44	123,90
187,66	48,13
187,88	61,95
188,10	226,30
188,32	52,74
188,55	114,17
188,77	130,56
188,99	91,65
189,21	138,24
189,43	134,65
189,65	103,42
189,87	139,26
190,10	223,74
190,32	144,38
190,54	84,99
190,76	161,28
190,98	101,37
191,20	195,07
191,42	118,27
191,64	89,60
191,87	76,80
192,09	142,85
192,31	66,56
192,53	96,25
192,75	111,10
192,97	134,65
193,19	99,33
193,41	48,64
193,64	158,21
193,86	102,40
194,08	141,31
194,30	76,80
194,52	113,66
194,74	151,55
194,96	-2,05
195,18	123,39
195,40	94,72
195,63	85,50
195,85	23,55
196,07	30,72
196,29	96,77
196,51	113,15
196,73	122,37
196,95	132,09
197,17	103,93
197,39	136,19
197,61	180,22
197,84	139,77
198,06	53,76
198,28	112,13
198,50	-26,11
198,72	130,05
198,94	133,63
199,16	107,52
199,38	133,12
199,60	16,38
199,82	57,86
200,04	147,45
200,26	80,38
200,49	77,31
200,71	75,77
200,93	163,84
201,15	51,20
201,37	54,78
201,59	98,81
201,81	128,51
202,03	188,41
202,25	33,79
202,47	78,33
202,69	86,53
202,91	128,00
203,13	80,38
203,35	96,77
203,58	14,34
203,80	153,09
204,02	100,86
204,24	-12,80
204,46	96,77
204,68	141,31
204,90	88,06
205,12	131,58
205,34	125,44
205,56	101,89
205,78	161,28
206,00	85,50
206,22	78,85
206,44	124,93
206,66	33,79
206,88	160,25
207,10	61,95
207,32	168,96
207,54	158,21
207,76	74,75
207,99	96,25
208,21	128,51
208,43	117,76
208,65	52,74
208,87	128,51
209,09	112,13
209,31	64,51
209,53	28,16
209,75	193,02
209,97	156,16
210,19	39,94
210,41	100,35
210,63	101,37
210,85	52,74
211,07	152,06
211,29	83,45
211,51	128,00
211,73	172,03
211,95	140,80
212,17	110,08
212,39	122,37
212,61	94,21
212,83	49,66
213,05	151,55
213,27	157,69
213,49	108,54
213,71	79,87
213,93	107,01
214,15	167,93
214,37	140,29
214,59	128,00
214,81	92,16
215,03	81,92
215,25	92,67
215,47	94,21
215,69	122,88
215,91	103,42
216,13	92,67
216,35	171,52
216,57	28,16
216,79	98,81
217,01	156,16
217,23	79,87
217,45	80,38
217,67	166,40
217,89	182,78
218,11	144,89
218,33	130,05
218,55	66,56
218,77	106,49
218,99	98,30
219,21	134,14
219,43	96,77
219,65	179,20
219,87	181,76
220,09	157,18
220,31	96,77
220,53	120,83
220,75	100,35
220,97	72,70
221,19	11,78
221,41	63,49
221,63	64,51
221,85	163,84
222,06	79,36
222,28	124,93
222,50	153,60
222,72	105,47
222,94	48,13
223,16	122,88
223,38	186,37
223,60	43,52
223,82	78,33
224,04	188,41
224,26	108,54
224,48	113,66
224,70	124,93
224,92	76,80
225,14	121,34
225,36	161,28
225,58	85,50
225,80	154,62
226,02	110,08
226,24	73,73
226,45	103,42
226,67	70,14
226,89	38,40
227,11	107,52
227,33	102,91
227,55	18,94
227,77	88,06
227,99	69,12
228,21	121,34
228,43	76,80
228,65	86,01
228,87	143,87
229,09	-15,87
229,31	54,27
229,52	62,98
229,74	-20,99
229,96	124,41
230,18	90,62
230,40	123,90
230,62	88,57
230,84	169,98
231,06	-30,72
231,28	80,89
231,50	59,90
231,72	93,18
231,94	53,25
232,15	116,73
232,37	34,30
232,59	77,82
232,81	157,18
233,03	57,86
233,25	108,54
233,47	67,58
233,69	54,27
233,91	68,09
234,13	29,18
234,34	92,67
234,56	66,56
234,78	159,74
235,00	0,00
235,22	50,18
235,44	91,13
235,66	82,43
235,88	64,51
236,10	167,42
236,31	99,84
236,53	165,37
236,75	137,21
236,97	86,53
237,19	121,34
237,41	104,45
237,63	154,11
237,85	107,52
238,07	143,36
238,28	85,50
238,50	87,55
238,72	122,37
238,94	101,37
239,16	74,75
239,38	108,54
239,60	119,81
239,81	47,10
240,03	62,98
240,25	72,70
240,47	151,04
240,69	97,79
240,91	133,12
241,13	204,80
241,34	118,27
241,56	109,05
241,78	107,01
242,00	82,43
242,22	58,88
242,44	166,40
242,66	73,21
242,87	76,80
243,09	116,73
243,31	61,95
243,53	77,31
243,75	107,52
243,97	77,31
244,19	124,41
244,40	147,97
244,62	104,96
244,84	198,65
245,06	111,10
245,28	56,32
245,50	88,06
245,71	152,06
245,93	71,17
246,15	124,41
246,37	143,87
246,59	183,81
246,81	65,54
247,02	54,78
247,24	142,85
247,46	86,01
247,68	100,35
247,90	107,01
248,11	107,01
248,33	67,07
248,55	111,61
248,77	19,97
248,99	112,13
249,21	39,94
249,42	110,59
249,64	152,57
249,86	80,38
250,08	64,51
250,30	102,91
250,51	107,01
250,73	27,65
250,95	98,30
251,17	157,69
251,39	108,03
251,60	168,96
251,82	169,98
252,04	117,76
252,26	75,77
252,48	45,57
252,69	153,09
252,91	125,44
253,13	70,65
253,35	153,60
253,57	164,35
253,78	74,24
254,00	120,83
254,22	98,81
254,44	89,09
254,65	112,13
254,87	76,29
255,09	102,91
255,31	121,34
255,53	107,52
255,74	125,95
255,96	139,26
256,18	107,52
256,40	82,43
256,61	103,42
256,83	204,28
257,05	133,63
257,27	164,86
257,48	88,57
257,70	119,29
257,92	113,66
258,14	102,91
258,36	82,43
258,57	146,94
258,79	107,01
259,01	99,33
259,23	86,01
259,44	66,05
259,66	105,98
259,88	178,69
260,10	81,41
260,31	108,03
260,53	174,08
260,75	37,38
260,97	115,20
261,18	85,50
261,40	130,05
261,62	57,34
261,84	119,29
262,05	68,09
262,27	128,00
262,49	111,10
262,71	100,86
262,92	163,84
263,14	92,16
263,36	63,49
263,57	201,72
263,79	161,79
264,01	118,27
264,23	49,66
264,44	82,43
264,66	100,35
264,88	143,36
265,10	66,05
265,31	154,62
265,53	45,57
265,75	134,65
265,96	98,30
266,18	170,49
266,40	142,33
266,62	149,50
266,83	191,49
267,05	57,34
267,27	131,07
267,48	225,79
267,70	15,36
267,92	89,60
268,14	132,61
268,35	97,28
268,57	178,69
268,79	181,76
269,00	125,95
269,22	134,65
269,44	103,93
269,65	104,96
269,87	76,29
270,09	132,09
270,31	75,26
270,52	162,81
270,74	137,21
270,96	84,48
271,17	158,21
271,39	80,89
271,61	166,91
271,82	117,76
272,04	114,69
272,26	55,81
272,47	166,91
272,69	110,59
272,91	41,98
273,12	94,72
273,34	154,11
273,56	119,81
273,77	70,14
273,99	152,06
274,21	163,33
274,42	83,45
274,64	179,71
274,86	32,77
275,08	109,05
275,29	47,10
275,51	138,24
275,72	78,85
275,94	148,99
276,16	97,79
276,37	96,77
276,59	71,17
276,81	38,40
277,02	103,93
277,24	115,20
277,46	89,60
277,67	36,86
277,89	123,39
278,11	129,53
278,32	128,00
278,54	6,14
278,76	183,81
278,97	189,95
279,19	124,93
279,41	62,98
279,62	112,64
279,84	118,78
280,05	79,87
280,27	82,94
280,49	110,08
280,70	122,37
280,92	98,81
281,14	117,76
281,35	-13,31
281,57	111,10
281,79	57,34
282,00	146,94
282,22	196,61
282,43	124,41
282,65	86,53
282,87	45,06
283,08	108,03
283,30	202,24
283,52	179,71
283,73	58,37
283,95	113,15
284,16	89,09
284,38	141,31
284,60	169,98
284,81	119,81
285,03	89,09
285,24	90,11
285,46	121,85
285,68	79,36
285,89	134,65
286,11	84,48
286,32	155,13
286,54	102,91
286,76	109,05
286,97	131,07
287,19	82,94
287,40	102,91
287,62	123,90
287,84	122,88
288,05	96,25
288,27	113,15
288,48	65,53
288,70	110,08
288,92	117,76
289,13	86,53
289,35	126,97
289,56	119,29
289,78	91,65
289,99	140,80
290,21	107,52
290,43	113,66
290,64	66,05
290,86	120,83
291,07	107,01
291,29	159,74
291,51	77,82
291,72	126,46
291,94	146,43
292,15	136,70
292,37	173,05
292,58	121,34
292,80	174,59
293,01	86,01
293,23	126,46
293,45	132,61
293,66	111,61
293,88	182,27
294,09	1,02
294,31	100,35
294,52	114,17
294,74	134,65
294,96	102,40
295,17	112,13
295,39	136,70
295,60	124,93
295,82	103,42
296,03	91,13
296,25	63,49
296,46	109,05
296,68	94,72
296,89	84,48
297,11	61,95
297,32	225,79
297,54	154,11
297,76	78,33
297,97	61,95
298,19	124,41
298,40	132,61
298,62	95,23
298,83	129,53
299,05	160,77
299,26	98,30
299,48	88,06
299,69	157,18
299,91	18,94
300,12	146,43
300,34	163,33
300,55	148,99
300,77	203,26
300,98	-17,92
301,20	84,99
301,41	9,22
301,63	114,17
301,84	53,76
302,06	134,14
302,28	54,78
302,49	73,73
302,71	168,45
302,92	-80,38
303,14	99,84
303,35	180,73
303,57	81,92
303,78	151,04
304,00	141,82
304,21	63,49
304,43	96,77
304,64	144,89
304,86	36,35
305,07	140,29
305,29	129,02
305,50	97,28
305,71	123,90
305,93	108,54
306,14	167,93
306,36	113,66
306,57	133,63
306,79	138,24
307,00	59,90
307,22	108,03
307,43	61,95
307,65	164,86
307,86	100,35
308,08	108,54
308,29	115,71
308,51	84,48
308,72	140,29
308,94	126,46
309,15	101,37
309,37	102,40
309,58	22,02
309,80	101,89
310,01	123,39
310,22	95,23
310,44	99,84
310,65	107,01
310,87	112,64
311,08	126,97
311,30	67,07
311,51	190,46
311,73	107,52
311,94	84,99
312,16	23,55
312,37	138,75
312,58	160,25
312,80	23,55
313,01	101,37
313,23	97,79
313,44	126,46
313,66	51,71
313,87	181,76
314,09	9,73
314,30	83,45
314,51	104,45
314,73	66,05
314,94	185,85
315,16	115,71
315,37	162,81
315,59	80,89
315,80	67,07
316,01	139,26
316,23	118,27
316,44	138,24
316,66	81,92
316,87	187,39
317,09	130,56
317,30	109,05
317,51	99,84
317,73	120,83
317,94	89,60
318,16	185,85
318,37	57,86
318,58	-50,69
318,80	162,81
319,01	67,58
319,23	153,09
319,44	68,61
319,66	65,02
319,87	123,90
320,08	175,10
320,30	84,48
320,51	100,86
320,73	27,14
320,94	89,09
321,15	108,03
321,37	117,76
321,58	96,25
321,80	142,33
322,01	74,75
322,22	7,68
322,44	92,67
322,65	128,51
322,86	68,61
323,08	182,78
323,29	114,69
323,51	69,63
323,72	96,77
323,93	165,89
324,15	108,54
324,36	97,79
324,58	138,24
324,79	156,67
325,00	139,77
325,22	116,22
325,43	120,32
325,64	121,85
325,86	89,60
326,07	62,46
326,28	150,53
326,50	116,22
326,71	68,61
326,93	45,57
327,14	123,39
327,35	42,50
327,57	119,81
327,78	119,81
327,99	175,10
328,21	58,88
328,42	178,69
328,63	153,09
328,85	147,97
329,06	65,53
329,27	108,54
329,49	105,98
329,70	67,58
329,91	139,26
330,13	80,89
330,34	133,12
330,56	-23,04
330,77	86,01
330,98	109,05
331,20	116,73
331,41	183,29
331,62	108,54
331,84	131,07
332,05	98,81
332,26	177,15
332,48	144,38
332,69	120,32
332,90	108,03
333,11	70,14
333,33	49,66
333,54	139,77
333,75	44,54
333,97	45,06
334,18	137,21
334,39	148,99
334,61	124,93
334,82	193,02
335,03	103,93
335,25	129,02
335,46	128,51
335,67	175,10
335,89	99,33
336,10	126,46
336,31	123,39
336,53	82,94
336,74	173,05
336,95	160,77
337,16	77,82
337,38	134,65
337,59	248,83
337,80	60,93
338,02	129,02
338,23	147,97
338,44	100,86
338,65	125,44
338,87	114,69
339,08	124,41
339,29	173,05
339,51	132,09
339,72	109,05
339,93	163,33
340,14	117,25
340,36	138,24
340,57	165,89
340,78	54,27
341,00	36,35
341,21	147,45
341,42	269,82
341,63	76,29
341,85	83,97
342,06	89,60
342,27	153,60
342,49	158,21
342,70	135,17
342,91	125,95
343,12	144,89
343,34	153,09
343,55	70,65
343,76	160,25
343,97	142,33
344,19	186,37
344,40	99,84
344,61	174,08
344,82	124,41
345,04	50,18
345,25	138,24
345,46	98,30
345,67	126,46
345,89	83,45
346,10	131,07
346,31	65,02
346,52	34,82
346,74	54,78
346,95	158,21
347,16	40,45
347,37	76,80
347,59	123,90
347,80	94,21
348,01	111,61
348,22	134,65
348,43	109,57
348,65	77,31
348,86	113,15
349,07	146,43
349,28	44,03
349,50	93,18
349,71	149,50
349,92	80,89
350,13	132,61
350,34	51,20
350,56	50,69
350,77	174,59
350,98	96,77
351,19	92,67
351,41	181,25
351,62	200,70
351,83	29,18
352,04	146,43
352,25	123,39
352,47	123,90
352,68	243,71
352,89	28,67
353,10	125,44
353,31	145,92
353,53	116,22
353,74	79,36
353,95	121,85
354,16	169,47
354,37	137,73
354,59	140,80
354,80	151,04
355,01	96,77
355,22	72,19
355,43	77,82
355,65	17,92
355,86	205,82
356,07	126,46
356,28	136,19
356,49	31,23
356,70	137,73
356,92	114,17
357,13	69,63
357,34	139,77
357,55	217,60
357,76	165,37
357,98	28,16
358,19	126,46
358,40	102,91
358,61	71,68
358,82	121,85
359,03	92,67
359,25	167,93
359,46	161,28
359,67	148,99
359,88	103,42
360,09	150,53
360,30	84,48
360,51	133,63
360,73	174,08
360,94	103,42
361,15	47,10
361,36	84,99
361,57	101,89
361,78	69,12
362,00	16,38
362,21	123,39
362,42	168,45
362,63	92,16
362,84	72,19
363,05	70,14
363,26	64,51
363,48	112,64
363,69	149,50
363,90	95,74
364,11	53,25
364,32	58,37
364,53	86,01
364,74	64,00
364,95	93,18
365,17	70,14
365,38	157,69
365,59	159,74
365,80	140,80
366,01	78,33
366,22	78,85
366,43	17,92
366,64	128,51
366,86	113,15
367,07	126,97
367,28	144,89
367,49	140,29
367,70	150,01
367,91	50,18
368,12	2,05
368,33	56,32
368,54	178,17
368,76	79,36
368,97	61,44
369,18	83,45
369,39	69,63
369,60	32,77
369,81	55,81
370,02	131,58
370,23	93,18
370,44	57,34
370,65	41,98
370,87	34,82
371,08	168,96
371,29	95,74
371,50	138,24
371,71	156,67
371,92	171,01
372,13	125,95
372,34	89,60
372,55	50,18
372,76	107,52
372,97	126,97
373,18	182,27
373,40	76,80
373,61	97,28
373,82	73,21
374,03	131,58
374,24	145,41
374,45	56,32
374,66	176,64
374,87	215,55
375,08	55,81
375,29	86,01
375,50	132,61
375,71	86,01
375,92	128,51
376,13	70,14
376,34	106,49
376,56	89,09
376,77	132,61
376,98	90,11
377,19	137,21
377,40	76,29
377,61	132,09
377,82	137,21
378,03	125,44
378,24	98,81
378,45	117,76
378,66	45,57
378,87	111,61
379,08	79,36
379,29	144,38
379,50	152,57
379,71	34,30
379,92	83,97
380,13	34,82
380,34	87,55
380,55	143,36
380,76	128,00
380,97	191,49
381,18	142,33
381,39	92,67
381,60	175,61
381,81	68,61
382,02	84,99
382,24	83,45
382,45	80,89
382,66	72,70
382,87	161,79
383,08	146,94
383,29	83,45
383,50	158,21
383,71	98,81
383,92	95,23
384,13	38,91
384,34	157,18
384,55	38,91
384,76	77,82
384,97	98,30
385,18	59,39
385,39	66,56
385,60	110,08
385,81	147,97
386,02	167,42
386,23	148,99
386,44	34,30
386,65	96,25
386,86	70,65
387,07	139,77
387,28	89,60
387,49	73,73
387,70	70,65
387,91	97,28
388,12	121,85
388,32	65,54
388,53	98,81
388,74	71,17
388,95	35,33
389,16	58,88
389,37	60,93
389,58	101,89
389,79	183,81
390,00	135,68
390,21	110,08
390,42	24,58
390,63	124,93
390,84	74,24
391,05	163,33
391,26	171,52
391,47	34,30
391,68	100,86
391,89	144,89
392,10	128,00
392,31	138,24
392,52	117,25
392,73	-36,35
392,94	179,20
393,15	86,53
393,36	100,86
393,57	124,93
393,78	121,34
393,98	134,65
394,19	56,83
394,40	158,72
394,61	63,49
394,82	148,48
395,03	119,29
395,24	105,98
395,45	37,89
395,66	102,40
395,87	0,51
396,08	48,13
396,29	169,98
396,50	120,32
396,71	101,37
396,92	58,88
397,12	158,21
397,33	128,51
397,54	84,99
397,75	90,11
397,96	83,97
398,17	72,19
398,38	58,37
398,59	109,05
398,80	-30,72
399,01	160,77
399,22	143,36
399,43	73,21
399,63	138,24
399,84	122,88
400,05	136,70
400,26	84,99
400,47	106,49
400,68	121,85
400,89	80,89
401,10	57,34
401,31	107,52
401,52	38,40
401,72	109,05
401,93	59,39
402,14	62,46
402,35	152,06
402,56	93,69
402,77	88,06
402,98	113,15
403,19	86,01
403,40	95,23
403,60	116,22
403,81	130,05
404,02	89,09
404,23	138,75
404,44	99,33
404,65	82,43
404,86	83,97
405,07	67,58
405,27	51,20
405,48	40,96
405,69	36,86
405,90	105,98
406,11	89,09
406,32	155,65
406,53	155,13
406,74	118,78
406,94	96,77
407,15	94,21
407,36	31,74
407,57	110,59
407,78	109,05
407,99	118,78
408,20	111,61
408,40	109,57
408,61	132,61
408,82	161,28
409,03	101,89
409,24	81,41
409,45	62,46
409,65	145,41
409,86	108,54
410,07	61,95
410,28	91,13
410,49	184,83
410,70	165,37
410,90	139,77
411,11	118,27
411,32	79,36
411,53	148,99
411,74	112,64
411,95	128,51
412,15	153,60
412,36	6,66
412,57	134,65
412,78	157,69
412,99	125,44
413,20	52,74
413,40	59,90
413,61	119,81
413,82	126,97
414,03	102,91
414,24	136,19
414,44	96,25
414,65	70,65
414,86	40,96
415,07	128,51
415,28	147,97
415,48	130,05
415,69	62,46
415,90	114,69
416,11	128,00
416,32	119,29
416,53	90,11
416,73	206,84
416,94	139,77
417,15	122,88
417,36	128,51
417,56	97,79
417,77	45,57
417,98	55,81
418,19	220,16
418,40	103,93
418,60	104,96
418,81	131,07
419,02	82,94
419,23	48,64
419,44	56,83
419,64	75,77
419,85	133,63
420,06	100,35
420,27	111,61
420,47	28,16
420,68	145,92
420,89	123,39
421,10	70,14
421,30	125,95
421,51	141,82
421,72	102,91
421,93	65,53
422,14	141,82
422,34	141,82
422,55	91,13
422,76	55,81
422,97	54,78
423,17	100,35
423,38	94,72
423,59	51,20
423,80	143,87
424,00	68,09
424,21	165,89
424,42	83,97
424,63	71,17
424,83	66,56
425,04	126,97
425,25	62,46
425,46	171,01
425,66	98,30
425,87	169,47
426,08	151,04
426,28	161,28
426,49	123,90
426,70	158,21
426,91	113,15
427,11	124,93
427,32	215,04
427,53	158,21
427,74	131,07
427,94	55,81
428,15	164,35
428,36	102,91
428,56	41,98
428,77	112,13
428,98	73,73
429,19	188,41
429,39	127,49
429,60	69,63
429,81	103,42
430,01	171,52
430,22	99,84
430,43	66,05
430,64	54,78
430,84	5,63
431,05	122,88
431,26	119,81
431,46	92,67
431,67	79,36
431,88	70,14
432,08	160,77
432,29	35,33
432,50	72,19
432,70	169,47
432,91	112,64
433,12	68,09
433,33	115,20
433,53	101,89
433,74	84,48
433,95	146,94
434,15	57,34
434,36	89,09
434,57	145,41
434,77	22,53
434,98	77,31
435,19	109,05
435,39	123,39
435,60	59,39
435,81	117,25
436,01	74,75
436,22	85,50
436,43	135,68
436,63	126,46
436,84	97,28
437,05	2,56
437,25	-4,10
437,46	157,18
437,67	46,08
437,87	69,63
438,08	6,14
438,29	86,53
438,49	93,18
438,70	141,31
438,91	130,05
439,11	96,77
439,32	163,84
439,52	131,07
439,73	132,09
439,94	130,56
440,14	78,85
440,35	79,87
440,56	93,69
440,76	98,81
440,97	73,21
441,18	91,13
441,38	65,02
441,59	135,68
441,79	58,37
442,00	144,89
442,21	107,01
442,41	122,37
442,62	27,65
442,83	116,73
443,03	91,65
443,24	173,57
443,44	133,63
443,65	127,49
443,86	117,25
444,06	82,94
444,27	87,04
444,48	110,08
444,68	115,71
444,89	65,54
445,09	103,93
445,30	142,33
445,51	83,45
445,71	117,76
445,92	83,97
446,12	69,63
446,33	143,36
446,54	169,98
446,74	102,40
446,95	85,50
447,15	111,10
447,36	113,66
447,57	84,99
447,77	120,32
447,98	140,80
448,18	31,23
448,39	61,95
448,59	60,42
448,80	54,78
449,01	100,86
449,21	59,39
449,42	71,68
449,62	124,41
449,83	52,74
450,04	123,90
450,24	98,81
450,45	151,04
450,65	134,14
450,86	176,13
451,06	114,69
451,27	115,20
451,47	11,78
451,68	105,98
451,89	44,03
452,09	54,27
452,30	56,83
452,50	162,30
452,71	103,93
452,91	126,46
453,12	83,97
453,33	129,53
453,53	43,52
453,74	57,86
453,94	99,84
454,15	92,16
454,35	84,48
454,56	125,95
454,76	162,81
454,97	151,04
455,17	90,62
455,38	47,62
455,58	80,89
455,79	94,21
456,00	135,17
456,20	19,97
456,41	143,87
456,61	61,95
456,82	105,98
457,02	80,38
457,23	171,01
457,43	128,00
457,64	61,44
457,84	47,10
458,05	121,85
458,25	68,61
458,46	51,20
458,66	97,79
458,87	18,43
459,07	107,01
459,28	180,22
459,48	135,68
459,69	52,74
459,89	139,77
460,10	132,09
460,30	172,03
460,51	66,56
460,71	118,27
460,92	111,61
461,12	164,35
461,33	6,14
461,53	73,73
461,74	52,22
461,94	143,36
462,15	92,67
462,35	58,37
462,56	101,37
462,76	75,77
462,97	119,29
463,17	31,23
463,38	108,03
463,58	144,89
463,79	69,12
463,99	58,88
464,20	161,28
464,40	134,14
464,61	88,06
464,81	167,42
465,02	71,17
465,22	103,93
465,43	20,48
465,63	163,33
465,83	79,87
466,04	159,23
466,24	62,98
466,45	228,35
466,65	163,84
466,86	102,40
467,06	22,02
467,27	107,01
467,47	67,07
467,68	114,69
467,88	74,24
468,08	123,90
468,29	100,86
468,49	163,33
468,70	157,18
468,90	144,89
469,11	210,43
469,31	26,62
469,52	116,22
469,72	118,27
469,92	155,65
470,13	138,24
470,33	106,49
470,54	139,26
470,74	166,91
470,95	141,82
471,15	138,24
471,35	64,51
471,56	116,22
471,76	88,57
471,97	84,48
472,17	54,27
472,38	1,54
472,58	117,25
472,78	122,37
472,99	145,41
473,19	156,16
473,40	135,68
473,60	77,82
473,80	77,82
474,01	95,23
474,21	99,84
474,42	122,88
474,62	90,11
474,83	97,28
475,03	115,71
475,23	86,53
475,44	118,27
475,64	135,17
475,85	125,44
476,05	96,25
476,25	123,39
476,46	96,77
476,66	96,77
476,86	199,68
477,07	189,95
477,27	176,64
477,48	89,60
477,68	51,20
477,88	110,08
478,09	44,54
478,29	81,92
478,50	63,49
478,70	89,60
478,90	49,15
479,11	72,70
479,31	110,59
479,51	205,82
479,72	146,94
479,92	8,19
480,12	128,51
480,33	58,37
480,53	153,60
480,74	46,08
480,94	163,33
481,14	123,90
481,35	130,56
481,55	113,66
481,75	25,09
481,96	107,52
482,16	83,45
482,36	118,78
482,57	101,37
482,77	75,26
482,97	68,61
483,18	105,47
483,38	141,31
483,58	97,28
483,79	68,09
483,99	172,54
484,19	59,39
484,40	91,65
484,60	108,03
484,80	123,39
485,01	120,32
485,21	109,57
485,41	60,93
485,62	171,52
485,82	90,11
486,02	73,21
486,23	139,26
486,43	106,49
486,63	73,21
486,84	157,18
487,04	136,70
487,24	64,51
487,45	66,05
487,65	60,93
487,85	101,89
488,06	132,09
488,26	75,77
488,46	142,33
488,67	67,07
488,87	56,32
489,07	56,83
489,27	172,54
489,48	31,23
489,68	95,23
489,88	180,73
490,09	71,17
490,29	78,85
490,49	57,86
490,70	114,17
490,90	161,28
491,10	68,61
491,30	90,62
491,51	31,74
491,71	149,50
491,91	160,25
492,12	66,05
492,32	29,70
492,52	47,62
492,72	92,67
492,93	99,33
493,13	91,13
493,33	142,85
493,53	178,69
493,74	37,38
493,94	119,81
494,14	69,12
494,34	167,93
494,55	45,57
494,75	86,53
494,95	158,72
495,16	156,16
495,36	49,66
495,56	113,66
495,76	71,68
495,97	93,18
496,17	84,48
496,37	84,48
496,57	145,41
496,78	56,83
496,98	94,21
497,18	36,35
497,38	118,78
497,59	65,54
497,79	109,57
497,99	141,31
498,19	88,57
498,39	138,24
498,60	50,69
498,80	56,83
499,00	129,02
499,20	132,09
499,41	96,25
499,61	95,74
499,81	134,65
500,01	147,97
500,22	104,96
500,42	35,33
500,62	193,53
500,82	123,90
501,02	53,25
501,23	123,39
501,43	97,28
501,63	110,08
501,83	105,98
502,03	135,17
502,24	76,80
502,44	84,99
502,64	107,01
502,84	95,74
503,05	109,57
503,25	102,40
503,45	71,17
503,65	115,20
503,85	92,16
504,06	57,86
504,26	53,76
504,46	101,89
504,66	101,37
504,86	139,26
505,06	79,87
505,27	50,18
505,47	79,36
505,67	140,29
505,87	58,37
506,07	125,95
506,28	140,80
506,48	51,20
506,68	102,40
506,88	74,24
507,08	72,19
507,28	107,52
507,49	38,91
507,69	61,44
507,89	114,69
508,09	25,09
508,29	136,70
508,49	101,89
508,70	64,00
508,90	129,53
509,10	97,79
509,30	62,46
509,50	101,37
509,70	141,31
509,91	195,58
510,11	109,05
510,31	33,28
510,51	-24,06
510,71	84,48
510,91	111,10
511,11	60,42
511,32	131,07
511,52	131,58
511,72	140,80
511,92	75,26
512,12	25,09
512,32	-27,65
512,52	80,38
512,73	65,02
512,93	175,10
513,13	49,66
513,33	80,89
513,53	108,03
513,73	183,29
513,93	92,67
514,13	84,99
514,34	75,26
514,54	147,97
514,74	137,21
514,94	154,62
515,14	142,85
515,34	113,66
515,54	74,75
515,74	186,37
515,94	126,97
516,15	137,21
516,35	147,45
516,55	100,86
516,75	127,49
516,95	53,25
517,15	15,36
517,35	77,31
517,55	143,87
517,75	133,63
517,95	154,11
518,16	71,68
518,36	5,63
518,56	72,19
518,76	185,34
518,96	174,59
519,16	68,61
519,36	148,99
519,56	174,59
519,76	135,68
519,96	78,33
520,16	93,18
520,37	10,24
520,57	116,73
520,77	125,44
520,97	88,06
521,17	81,92
521,37	137,21
521,57	89,60
521,77	95,74
521,97	105,98
522,17	98,81
522,37	189,95
522,57	89,09
522,77	82,94
522,97	150,01
523,17	83,97
523,37	56,83
523,58	186,37
523,78	-10,24
523,98	172,03
524,18	167,42
524,38	102,40
524,58	183,81
524,78	103,93
524,98	56,32
525,18	120,83
525,38	88,57
525,58	118,27
525,78	52,74
525,98	54,78
526,18	170,49
526,38	87,55
526,58	98,30
526,78	110,59
526,98	34,30
527,18	131,58
527,38	84,99
527,58	123,39
527,78	95,23
527,98	174,08
528,18	126,97
528,38	116,73
528,58	83,45
528,78	125,44
528,98	99,33
529,18	45,57
529,38	20,99
529,58	59,90
529,78	129,53
529,98	74,75
530,18	52,74
530,38	156,16
530,58	98,30
530,78	111,10
530,98	59,90
531,18	127,49
531,38	148,99
531,58	185,85
531,78	112,64
531,98	61,44
532,18	75,26
532,38	103,42
532,58	156,67
532,78	98,81
532,98	195,07
533,18	131,07
533,38	128,00
533,58	97,79
533,78	146,94
533,98	80,89
534,18	124,93
534,38	185,34
534,58	73,21
534,78	184,32
534,98	123,39
535,18	118,27
535,38	183,81
535,58	155,65
535,78	86,53
535,98	84,48
536,18	66,56
536,38	168,45
536,58	119,81
536,78	139,26
536,98	123,90
537,18	163,33
537,38	58,37
537,58	174,08
537,78	101,37
537,98	148,99
538,17	169,47
538,37	130,56
538,57	66,05
538,77	91,65
538,97	90,62
539,17	38,91
539,37	87,55
539,57	52,22
539,77	147,97
539,97	60,93
540,17	73,21
540,37	63,49
540,57	58,37
540,77	108,54
540,97	109,57
541,16	95,74
541,36	129,53
541,56	139,26
541,76	82,94
541,96	126,46
542,16	194,05
542,36	34,30
542,56	125,44
542,76	225,28
542,96	81,41
543,16	175,61
543,36	124,41
543,55	80,38
543,75	147,97
543,95	65,02
544,15	126,97
544,35	155,65
544,55	256,00
544,75	41,98
544,95	153,09
545,15	96,25
545,35	212,48
545,54	236,03
545,74	131,07
545,94	99,33
546,14	134,65
546,34	124,41
546,54	215,04
546,74	140,80
546,94	86,01
547,14	135,68
547,33	180,22
547,53	87,55
547,73	125,44
547,93	187,90
548,13	140,29
548,33	142,85
548,53	126,46
548,72	138,24
548,92	192,51
549,12	142,33
549,32	152,06
549,52	162,81
549,72	246,27
549,92	169,47
550,12	99,84
550,31	184,83
550,51	164,35
550,71	207,87
550,91	216,57
551,11	203,77
551,31	141,82
551,50	205,31
551,70	206,33
551,90	147,45
552,10	130,05
552,30	198,65
552,50	197,63
552,70	108,54
552,89	158,21
553,09	200,70
553,29	196,09
553,49	291,84
553,69	223,23
553,88	188,41
554,08	164,35
554,28	269,31
554,48	231,42
554,68	285,18
554,88	145,41
555,07	197,63
555,27	206,33
555,47	216,57
555,67	155,13
555,87	167,93
556,06	244,73
556,26	228,86
556,46	250,36
556,66	269,82
556,86	259,58
557,06	290,30
557,25	229,88
557,45	127,49
557,65	237,05
557,85	302,08
558,05	248,83
558,24	230,91
558,44	282,62
558,64	248,32
558,84	272,89
559,03	286,20
559,23	369,66
559,43	242,68
559,63	296,96
559,83	245,76
560,02	268,80
560,22	346,11
560,42	279,04
560,62	323,07
560,82	293,88
561,01	272,89
561,21	365,05
561,41	256,51
561,61	336,38
561,80	272,89
562,00	329,21
562,20	300,03
562,40	313,85
562,59	329,21
562,79	307,71
562,99	377,34
563,19	455,16
563,38	383,48
563,58	379,39
563,78	373,75
563,98	383,48
564,17	369,15
564,37	382,46
564,57	530,42
564,77	423,93
564,96	481,27
565,16	408,06
565,36	516,09
565,56	443,90
565,75	401,91
565,95	450,55
566,15	447,48
566,35	432,12
566,54	494,07
566,74	471,03
566,94	462,84
567,14	504,31
567,33	580,09
567,53	584,70
567,73	566,78
567,92	586,23
568,12	557,56
568,32	537,08
568,52	583,67
568,71	506,87
568,91	571,90
569,11	622,07
569,30	538,62
569,50	685,05
569,70	596,98
569,90	645,62
570,09	659,96
570,29	714,74
570,49	739,32
570,68	727,03
570,88	727,54
571,08	731,12
571,27	791,54
571,47	789,49
571,67	853,49
571,87	752,63
572,06	834,04
572,26	790,52
572,46	895,99
572,65	799,22
572,85	846,32
573,05	802,80
573,24	918,00
573,44	934,90
573,64	979,44
573,83	1029,62
574,03	1007,60
574,23	1031,15
574,42	998,90
574,62	1061,36
574,82	1002,99
575,01	1068,53
575,21	1174,51
575,41	1143,79
575,60	1126,89
575,80	1168,88
576,00	1226,22
576,19	1214,45
576,39	1192,94
576,59	1264,62
576,78	1306,60
576,98	1386,99
577,18	1384,94
577,37	1386,99
577,57	1504,23
577,77	1477,61
577,96	1497,07
578,16	1556,46
578,35	1527,78
578,55	1650,66
578,75	1637,35
578,94	1655,27
579,14	1825,25
579,34	1793,51
579,53	1718,76
579,73	1814,50
579,93	1867,75
580,12	1831,40
580,32	1861,60
580,51	1924,07
580,71	1945,06
580,91	2046,43
581,10	2101,22
581,30	2125,28
581,50	2176,99
581,69	2137,57
581,89	2216,41
582,08	2307,04
582,28	2404,83
582,48	2373,08
582,67	2393,56
582,87	2425,82
583,06	2594,26
583,26	2693,59
583,46	2624,98
583,65	2696,15
583,85	2790,36
584,04	2846,16
584,24	2821,59
584,44	2849,24
584,63	3005,39
584,83	3014,10
585,02	3048,40
585,22	3168,72
585,42	3170,77
585,61	3254,73
585,81	3323,34
586,00	3449,80
586,20	3611,08
586,39	3565,51
586,59	3585,99
586,79	3700,17
586,98	3857,35
587,18	3900,87
587,37	3902,92
587,57	4035,52
587,76	3979,20
587,96	4176,83
588,16	4272,57
588,35	4331,97
588,55	4315,07
588,74	4538,30
588,94	4562,36
589,13	4778,94
589,33	4812,21
589,52	4781,50
589,72	4962,74
589,92	5062,58
590,11	5197,23
590,31	5236,66
590,50	5425,58
590,70	5486,00
590,89	5570,48
591,09	5648,30
591,28	5982,12
591,48	5989,28
591,67	6041,51
591,87	6228,38
592,06	6312,35
592,26	6400,41
592,46	6544,80
592,65	6851,99
592,85	6801,82
593,04	7079,83
593,24	7200,66
593,43	7350,16
593,63	7529,87
593,82	7650,70
594,02	7835,53
594,21	8199,55
594,41	8234,37
594,60	8317,83
594,80	8555,39
594,99	8770,94
595,19	8923,51
595,38	9248,11
595,58	9375,09
595,77	9594,73
595,97	9871,72
596,16	9917,80
596,36	10211,68
596,55	10481,50
596,75	10786,65
596,94	10881,37
597,14	11177,81
597,33	11543,38
597,53	11645,26
597,72	12077,90
597,92	12186,95
598,11	12704,57
598,31	12947,77
598,50	13315,38
598,70	13589,30
598,89	13807,92
599,09	14022,44
599,28	14455,59
599,48	14685,98
599,67	15195,42
599,87	15632,15
600,06	15869,71
600,26	16024,33
600,45	16597,76
600,64	16969,47
600,84	17302,78
601,03	17829,10
601,23	18143,98
601,42	18584,80
601,62	19035,36
601,81	19458,26
602,01	19878,10
602,20	20363,98
602,40	20860,61
602,59	21114,05
602,78	21845,17
602,98	22192,30
603,17	22744,74
603,37	23403,67
603,56	23997,07
603,76	24401,04
603,95	24881,80
604,15	25301,12
604,34	26057,33
604,53	26325,61
604,73	27102,82
604,92	27328,61
605,12	28148,31
605,31	28517,45
605,51	29142,60
605,70	29655,10
605,89	30228,02
606,09	30653,48
606,28	31402,02
606,48	32038,42
606,67	32630,80
606,87	33397,76
607,06	33649,15
607,25	34296,82
607,45	34945,51
607,64	35173,35
607,84	36025,31
608,03	36505,04
608,22	37394,37
608,42	37898,17
608,61	38385,59
608,81	38819,76
609,00	39564,71
609,19	40064,41
609,39	40606,61
609,58	41431,94
609,78	42201,47
609,97	42435,45
610,16	42959,22
610,36	43613,54
610,55	43929,44
610,75	44677,97
610,94	44965,71
611,13	45673,80
611,33	46098,75
611,52	46336,32
611,71	46433,60
611,91	47237,94
612,10	47483,18
612,30	47462,19
612,49	47944,48
612,68	47928,10
612,88	47554,86
613,07	47552,30
613,26	47596,33
613,46	47158,06
613,65	46787,38
613,84	46693,69
614,04	46001,99
614,23	45282,64
614,43	45111,12
614,62	44012,38
614,81	43451,24
615,01	42376,57
615,20	41404,30
615,39	40356,76
615,59	39415,21
615,78	38202,30
615,97	36973,00
616,17	36305,88
616,36	34874,35
616,55	33821,69
616,75	32817,68
616,94	31274,53
617,13	30107,70
617,33	29009,99
617,52	27976,79
617,71	26655,34
617,91	25745,53
618,10	24561,29
618,29	23350,94
618,49	22383,79
618,68	21509,30
618,87	20559,56
619,07	19637,46
619,26	18673,38
619,45	18037,48
619,65	17069,82
619,84	16409,35
620,03	15608,08
620,22	14894,88
620,42	14233,38
620,61	13684,53
620,80	13048,63
621,00	12657,98
621,19	12061,00
621,38	11530,06
621,58	10878,81
621,77	10612,57
621,96	10163,56
622,15	9748,33
622,35	9422,19
622,54	8963,96
622,73	8781,18
622,93	8337,28
623,12	8015,24
623,31	7794,57
623,50	7484,81
623,70	7281,55
623,89	6944,15
624,08	6750,62
624,28	6485,41
624,47	6238,11
624,66	6021,54
624,85	5979,04
625,05	5614,51
625,24	5400,49
625,43	5311,92
625,62	5185,46
625,82	5058,48
626,01	4827,57
626,20	4763,06
626,39	4628,92
626,59	4479,93
626,78	4357,57
626,97	4299,71
627,17	4110,79
627,36	3937,73
627,55	3869,64
627,74	3702,73
627,93	3642,31
628,13	3602,89
628,32	3445,71
628,51	3342,80
628,70	3198,42
628,90	3074,00
629,09	2962,90
629,28	2906,07
629,47	2855,89
629,67	2696,66
629,86	2639,32
630,05	2693,08
630,24	2588,12
630,44	2406,36
630,63	2426,33
630,82	2241,50
631,01	2210,78
631,20	2179,04
631,40	1986,02
631,59	1973,73
631,78	1901,03
631,97	1839,59
632,16	1839,59
632,36	1763,30
632,55	1641,96
632,74	1651,17
632,93	1539,56
633,13	1482,22
633,32	1471,47
633,51	1458,67
633,70	1455,08
633,89	1326,57
634,09	1286,64
634,28	1239,02
634,47	1297,39
634,66	1151,98
634,85	1185,77
635,04	1164,27
635,24	1079,79
635,43	1049,58
635,62	974,83
635,81	978,42
636,00	931,83
636,20	966,64
636,39	855,03
636,58	912,88
636,77	828,40
636,96	781,30
637,15	775,16
637,35	812,02
637,54	782,84
637,73	762,87
637,92	672,25
638,11	696,82
638,30	674,81
638,50	649,72
638,69	637,94
638,88	605,17
639,07	612,34
639,26	639,99
639,45	598,52
639,64	536,57
639,84	481,27
640,03	509,94
640,22	476,15
640,41	596,98
640,60	499,19
640,79	495,61
640,98	506,36
641,18	472,06
641,37	510,97
641,56	491,51
641,75	414,20
641,94	433,66
642,13	415,74
642,32	335,35
642,52	344,57
642,71	348,15
642,90	432,63
643,09	345,59
643,28	384,51
643,47	285,69
643,66	344,57
643,85	238,59
644,04	286,72
644,24	247,80
644,43	272,89
644,62	260,09
644,81	284,16
645,00	285,18
645,19	279,04
645,38	217,60
645,57	283,64
645,76	222,72
645,96	274,94
646,15	223,23
646,34	251,90
646,53	189,44
646,72	255,48
646,91	230,40
647,10	210,43
647,29	252,41
647,48	268,28
647,67	267,77
647,86	283,13
648,05	133,63
648,25	232,96
648,44	191,49
648,63	276,99
648,82	229,88
649,01	154,11
649,20	227,84
649,39	209,40
649,58	196,09
649,77	129,53
649,96	164,35
650,15	199,16
650,34	86,53
650,53	205,31
650,72	213,50
650,91	162,81
651,11	188,93
651,30	207,87
651,49	49,15
651,68	184,83
651,87	135,17
652,06	140,80
652,25	140,29
652,44	158,21
652,63	76,29
652,82	161,79
653,01	173,57
653,20	114,17
653,39	190,97
653,58	115,20
653,77	143,87
653,96	74,75
654,15	171,01
654,34	154,11
654,53	131,58
654,72	199,68
654,91	155,65
655,10	142,33
655,29	106,49
655,48	182,78
655,67	107,52
655,86	110,59
656,05	160,77
656,24	70,65
656,43	169,98
656,62	136,70
656,81	121,34
657,00	174,59
657,19	137,21
657,38	98,30
657,57	123,39
657,76	169,47
657,95	107,01
658,14	163,84
658,33	122,37
658,52	77,31
658,71	136,19
658,90	112,13
659,09	94,21
659,28	55,30
659,47	52,74
659,66	28,67
659,85	95,74
660,04	92,16
660,23	181,25
660,42	95,23
660,61	142,85
660,80	99,33
660,99	63,49
661,18	124,41
661,37	90,62
661,56	162,30
661,75	129,02
661,94	94,21
662,13	56,32
662,32	28,67
662,51	101,37
662,70	175,10
662,89	2,05
663,08	82,94
663,27	152,57
663,46	83,45
663,65	135,68
663,83	146,43
664,02	116,22
664,21	75,77
664,40	86,01
664,59	83,97
664,78	93,18
664,97	151,04
665,16	14,85
665,35	143,87
665,54	107,52
665,73	109,05
665,92	111,61
666,11	20,48
666,30	88,06
666,49	111,61
666,67	86,01
666,86	120,32
667,05	112,13
667,24	112,13
667,43	47,62
667,62	33,79
667,81	-5,12
668,00	137,21
668,19	59,90
668,38	119,81
668,57	102,40
668,76	175,10
668,94	15,36
669,13	126,97
669,32	89,09
669,51	27,14
669,70	162,81
669,89	27,65
670,08	112,64
670,27	67,58
670,46	87,04
670,64	30,21
670,83	153,60
671,02	24,58
671,21	40,45
671,40	62,98
671,59	113,15
671,78	30,21
671,97	71,17
672,16	55,30
672,34	92,16
672,53	141,31
672,72	73,73
672,91	93,18
673,10	109,57
673,29	130,05
673,48	39,42
673,66	38,91
673,85	102,40
674,04	94,21
674,23	46,59
674,42	38,40
674,61	101,37
674,80	117,76
674,98	39,42
675,17	102,40
675,36	44,03
675,55	84,99
675,74	45,57
675,93	135,68
676,12	65,53
676,30	121,34
676,49	54,27
676,68	76,80
676,87	76,29
677,06	99,33
677,25	91,65
677,43	104,96
677,62	121,85
677,81	90,62
678,00	103,93
678,19	110,08
678,37	107,52
678,56	79,36
678,75	11,78
678,94	102,91
679,13	70,65
679,32	71,17
679,50	109,57
679,69	152,57
679,88	27,65
680,07	127,49
680,26	97,28
680,44	154,62
680,63	46,08
680,82	-4,61
681,01	21,50
681,20	80,38
681,38	111,61
681,57	27,14
681,76	108,03
681,95	96,77
682,14	58,88
682,32	30,21
682,51	9,73
682,70	65,02
682,89	62,98
683,07	37,89
683,26	20,48
683,45	32,77
683,64	136,19
683,83	88,06
684,01	38,40
684,20	19,97
684,39	67,58
684,58	-13,31
684,76	44,54
684,95	73,21
685,14	10,75
685,33	78,33
685,52	129,53
685,70	124,93
685,89	34,30
686,08	109,05
686,27	-2,56
686,45	83,45
686,64	93,18
686,83	82,94
687,02	105,98
687,20	109,05
687,39	3,07
687,58	59,39
687,76	2,05
687,95	95,74
688,14	101,37
688,33	162,30
688,51	95,74
688,70	74,75
688,89	125,95
689,08	111,61
689,26	108,03
689,45	91,65
689,64	93,18
689,83	60,42
690,01	3,58
690,20	177,15
690,39	128,51
690,57	136,70
690,76	89,09
690,95	109,05
691,14	91,13
691,32	114,69
691,51	70,14
691,70	219,64
691,88	89,09
692,07	139,77
692,26	42,50
692,44	97,28
692,63	112,13
692,82	41,47
693,01	44,03
693,19	46,08
693,38	94,21
693,57	100,86
693,75	86,53
693,94	84,99
694,13	4,10
694,31	73,73
694,50	31,74
694,69	119,81
694,87	49,15
695,06	61,95
695,25	4,10
695,43	84,99
695,62	70,14
695,81	35,33
695,99	94,72
696,18	58,88
696,37	53,76
696,55	75,77
696,74	70,14
696,93	198,14
697,11	128,51
697,30	94,72
697,49	-16,38
697,67	143,36
697,86	68,09
698,05	99,33
698,23	14,34
698,42	97,79
698,61	79,87
698,79	40,45
698,98	65,54
699,17	64,51
699,35	61,95
699,54	105,47
699,72	51,20
699,91	66,56
700,10	57,34
700,28	93,18
700,47	95,74
700,66	-13,31
700,84	196,09
701,03	96,25
701,21	122,37
701,40	90,62
701,59	35,33
701,77	109,57
701,96	164,35
702,15	145,41
702,33	54,78
702,52	131,07
702,70	75,77
702,89	107,01
703,08	33,79
703,26	82,43
703,45	73,21
703,63	142,85
703,82	66,56
704,01	168,96
704,19	138,75
704,38	101,89
704,56	124,41
704,75	100,35
704,94	112,13
705,12	132,61
705,31	176,13
705,49	65,54
705,68	-12,80
705,86	155,65
706,05	81,41
706,24	83,97
706,42	158,21
706,61	50,69
706,79	58,88
706,98	58,37
707,17	114,17
707,35	90,62
707,54	6,14
707,72	77,82
707,91	77,82
708,09	93,18
708,28	89,09
708,46	59,90
708,65	155,65
708,84	76,80
709,02	68,61
709,21	127,49
709,39	92,67
709,58	89,60
709,76	-9,22
709,95	72,19
710,13	49,15
710,32	61,44
710,50	80,89
710,69	95,23
710,88	59,39
711,06	83,97
711,25	65,54
711,43	97,28
711,62	95,74
711,80	82,43
711,99	-10,75
712,17	33,79
712,36	160,77
712,54	62,98
712,73	119,29
712,91	119,81
713,10	160,77
713,28	108,54
713,47	87,55
713,65	126,46
713,84	139,77
714,02	148,48
714,21	112,13
714,39	147,97
714,58	47,10
714,76	123,39
714,95	81,92
715,13	38,91
715,32	66,56
715,50	37,89
715,69	174,08
715,87	137,73
716,06	99,33
716,24	51,71
716,43	132,09
716,61	116,73
716,80	102,40
716,98	-0,51
717,17	184,32
717,35	182,27
717,54	28,67
717,72	-4,61
717,91	80,38
718,09	30,72
718,28	40,45
718,46	81,92
718,65	91,13
718,83	51,71
719,01	91,65
719,20	31,23
719,38	74,24
719,57	119,81
719,75	34,82
719,94	105,98
720,12	84,48
720,31	91,65
720,49	93,18
720,68	74,75
720,86	88,57
721,04	100,86
721,23	64,51
721,41	-1,02
721,60	93,18
721,78	106,49
721,97	47,10
722,15	86,01
722,34	171,52
722,52	157,18
722,70	93,18
722,89	66,05
723,07	74,24
723,26	130,56
723,44	49,66
723,63	86,53
723,81	49,15
723,99	141,82
724,18	102,40
724,36	99,33
724,55	105,98
724,73	80,89
724,91	36,35
725,10	114,17
725,28	52,74
725,47	182,78
725,65	96,25
725,83	103,93
726,02	109,05
726,20	142,85
726,39	41,47
726,57	88,06
726,75	-28,67
726,94	58,37
727,12	205,31
727,31	76,80
727,49	73,21
727,67	114,17
727,86	107,01
728,04	69,12
728,23	129,53
728,41	12,80
728,59	80,89
728,78	137,73
728,96	104,96
729,14	38,91
729,33	24,06
729,51	49,15
729,69	96,77
729,88	71,17
730,06	123,39
730,25	89,60
730,43	154,62
730,61	145,41
730,80	85,50
730,98	62,46
731,16	90,11
731,35	41,98
731,53	112,13
731,71	83,97
731,90	46,08
732,08	94,21
732,26	31,23
732,45	40,96
732,63	95,74
732,81	49,66
733,00	98,30
733,18	136,70
733,36	89,09
733,55	166,40
733,73	100,86
733,91	10,24
734,10	58,37
734,28	52,22
734,46	48,64
734,65	136,19
734,83	88,06
735,01	53,76
735,20	142,33
735,38	28,67
735,56	81,92
735,75	125,44
735,93	28,16
736,11	205,82
736,30	62,98
736,48	63,49
736,66	50,18
736,84	148,99
737,03	78,85
737,21	80,38
737,39	-0,51
737,58	140,29
737,76	2,05
737,94	44,03
738,12	88,06
738,31	110,59
738,49	93,18
738,67	-25,60
738,86	79,36
739,04	99,33
739,22	170,49
739,40	116,22
739,59	17,92
739,77	30,21
739,95	92,16
740,14	63,49
740,32	93,18
740,50	95,23
740,68	83,97
740,87	82,94
741,05	190,46
741,23	122,37
741,41	62,98
741,60	117,25
741,78	113,66
741,96	158,21
742,14	26,62
742,33	78,33
742,51	82,94
742,69	104,96
742,87	37,38
743,06	50,18
743,24	0,00
743,42	169,47
743,60	36,35
743,79	111,10
743,97	108,03
744,15	62,98
744,33	65,02
744,52	11,26
744,70	57,86
744,88	101,37
745,06	136,70
745,24	62,98
745,43	124,93
745,61	72,70
745,79	76,80
745,97	148,99
746,16	142,85
746,34	140,80
746,52	133,63
746,70	41,47
746,88	150,01
747,07	99,33
747,25	12,80
747,43	108,54
747,61	130,05
747,79	141,82
747,98	75,77
748,16	143,36
748,34	76,29
748,52	2,05
748,70	-24,06
748,89	150,53
749,07	74,24
749,25	70,65
749,43	84,48
749,61	146,43
749,79	216,06
749,98	154,62
750,16	64,51
750,34	86,53
750,52	105,47
750,70	157,69
750,88	145,41
751,07	210,43
751,25	49,66
751,43	65,53
751,61	2,56
751,79	95,74
751,97	144,89
752,16	71,68
752,34	68,61
752,52	75,77
752,70	156,67
752,88	78,33
753,06	165,37
753,25	60,93
753,43	84,48
753,61	65,54
753,79	-60,42
753,97	64,51
754,15	69,12
754,33	107,01
754,52	156,16
754,70	23,55
754,88	52,74
755,06	94,72
755,24	126,97
755,42	98,81
755,60	139,77
755,78	119,81
755,97	141,31
756,15	43,52
756,33	111,61
756,51	100,86
756,69	109,57
756,87	72,70
757,05	72,70
757,23	35,84
757,41	119,81
757,60	7,17
757,78	73,21
757,96	66,05
758,14	36,35
758,32	38,40
758,50	128,51
758,68	126,46
758,86	94,21
759,04	102,40
759,22	80,38
759,41	52,74
759,59	93,18
759,77	178,17
759,95	22,02
760,13	79,87
760,31	153,09
760,49	122,88
760,67	80,89
760,85	-26,62
761,03	98,81
761,21	68,09
761,39	75,77
761,57	151,55
761,76	116,73
761,94	165,37
762,12	116,22
762,30	94,72
762,48	90,62
762,66	47,10
762,84	97,28
763,02	102,40
763,20	123,39
763,38	121,34
763,56	58,37
763,74	107,01
763,92	87,04
764,10	154,62
764,28	97,28
764,46	102,40
764,64	151,04
764,82	154,62
765,00	102,91
765,19	33,79
765,37	96,77
765,55	75,77
765,73	77,82
765,91	108,03
766,09	77,82
766,27	134,14
766,45	41,98
766,63	63,49
766,81	132,61
766,99	116,22
767,17	46,59
767,35	111,10
767,53	97,79
767,71	111,61
767,89	79,36
768,07	74,75
768,25	83,97
768,43	97,28
768,61	83,45
768,79	84,48
768,97	105,47
769,15	90,11
769,33	105,47
769,51	56,83
769,69	44,54
769,87	104,96
770,05	105,47
770,23	117,25
770,41	101,37
770,59	97,79
770,77	25,09
770,95	107,01
771,13	70,65
771,31	31,74
771,49	43,52
771,67	70,14
771,85	189,95
772,03	112,13
772,21	60,93
772,38	55,30
772,56	107,52
772,74	83,97
772,92	38,91
773,10	128,51
773,28	105,47
773,46	14,34
773,64	88,06
773,82	119,81
774,00	80,89
774,18	152,06
774,36	69,63
774,54	73,73
774,72	91,13
774,90	-23,04
775,08	94,72
775,26	173,05
775,44	95,74
775,62	69,12
775,80	52,74
775,97	100,86
776,15	119,81
776,33	133,12
776,51	56,83
776,69	111,61
776,87	117,76
777,05	152,57
777,23	155,65
777,41	10,75
777,59	18,94
777,77	35,84
777,95	143,36
778,13	101,89
778,30	103,93
778,48	161,28
778,66	173,57
778,84	60,42
779,02	48,13
779,20	90,62
779,38	171,01
779,56	142,85
779,74	53,25
779,92	17,92
780,09	118,78
780,27	115,71
780,45	11,26
780,63	136,19
780,81	81,41
780,99	99,33
781,17	131,07
781,35	59,39
781,52	131,07
781,70	136,70
781,88	100,86
782,06	160,77
782,24	136,70
782,42	122,37
782,60	92,16
782,78	94,21
782,95	151,55
783,13	128,51
783,31	84,48
783,49	85,50
783,67	102,40
783,85	122,37
784,03	72,19
784,20	68,61
784,38	64,51
784,56	116,73
784,74	68,09
784,92	47,62
785,10	146,43
785,28	97,79
785,45	151,04
785,63	144,89
785,81	115,20
785,99	66,56
786,17	154,11
786,35	60,93
786,52	72,70
786,70	76,29
786,88	48,13
787,06	72,70
787,24	124,41
787,41	95,23
787,59	118,27
787,77	59,39
787,95	12,29
788,13	79,87
788,31	48,13
788,48	90,62
788,66	57,34
788,84	51,71
789,02	128,00
789,20	82,94
789,37	54,27
789,55	138,24
789,73	66,05
789,91	113,15
790,09	139,77
790,26	64,00
790,44	86,53
790,62	29,18
790,80	156,16
790,98	133,63
791,15	142,33
791,33	126,46
791,51	134,14
791,69	86,53
791,86	144,38
792,04	152,57
792,22	61,44
792,40	54,27
792,58	84,99
792,75	82,94
792,93	188,93
793,11	66,56
793,29	60,93
793,46	116,73
793,64	126,46
793,82	98,81
794,00	71,68
794,17	204,28
794,35	67,58
794,53	112,64
794,71	66,56
794,88	51,20
795,06	43,52
795,24	187,39
795,42	124,41
795,59	45,06
795,77	78,33
795,95	82,94
796,13	82,94
796,30	64,00
796,48	132,61
796,66	134,65
796,83	175,10
797,01	126,97
797,19	5,12
797,37	141,31
797,54	95,74
797,72	53,76
797,90	146,94
798,08	-2,56
798,25	70,14
798,43	109,57
798,61	66,05
798,78	93,18
798,96	104,45
799,14	38,91
799,31	106,49
799,49	101,37
799,67	62,46
799,85	168,45
800,02	133,12
800,20	24,58
800,38	12,29
800,55	69,12
800,73	69,63
800,91	107,52
801,08	114,17
801,26	125,95
801,44	139,77
801,61	131,07
801,79	84,99
801,97	44,54
802,15	53,25
802,32	17,92
802,50	98,81
802,68	94,72
802,85	161,79
803,03	111,61
803,21	86,01
803,38	138,24
803,56	88,06
803,74	16,90
803,91	77,82
804,09	101,37
804,26	110,59
804,44	112,13
804,62	125,44
804,79	180,22
804,97	72,19
805,15	94,72
805,32	82,43
805,50	122,37
805,68	100,35
805,85	69,63
806,03	107,01
806,21	98,30
806,38	51,71
806,56	119,81
806,73	133,63
806,91	126,46
807,09	85,50
807,26	103,42
807,44	156,67
807,62	123,90
807,79	134,14
807,97	105,98
808,14	107,52
808,32	169,98
808,50	75,26
808,67	21,50
808,85	147,45
809,02	182,27
809,20	72,70
809,38	128,00
809,55	-10,75
809,73	119,81
809,90	97,28
810,08	142,33
810,26	115,71
810,43	110,59
810,61	131,58
810,78	133,12
810,96	56,83
811,14	49,66
811,31	51,20
811,49	27,65
811,66	58,88
811,84	55,81
812,02	69,63
812,19	130,05
812,37	93,18
812,54	171,52
812,72	110,59
812,89	165,37
813,07	110,59
813,25	166,91
813,42	128,00
813,60	141,82
813,77	216,06
813,95	106,49
814,12	1,02
814,30	89,09
814,47	113,15
814,65	103,93
814,83	95,23
815,00	126,46
815,18	192,00
815,35	80,89
815,53	164,35
815,70	86,53
815,88	101,89
816,05	88,57
816,23	77,31
816,40	130,56
816,58	128,00
816,75	79,87
816,93	138,75
817,10	134,14
817,28	75,26
817,46	56,83
817,63	129,02
817,81	116,73
817,98	1,02
818,16	56,32
818,33	102,40
818,51	80,38
818,68	109,57
818,86	181,76
819,03	192,00
819,21	92,67
819,38	125,95
819,56	68,09
819,73	61,44
819,91	139,77
820,08	102,91
820,26	80,89
820,43	222,20
820,61	41,47
820,78	39,94
820,96	37,89
821,13	134,65
821,31	126,97
821,48	90,62
821,66	107,52
821,83	105,47
822,00	75,26
822,18	81,41
822,35	93,69
822,53	151,04
822,70	73,73
822,88	168,96
823,05	103,93
823,23	116,73
823,40	12,29
823,58	115,71
823,75	50,18
823,93	72,70
824,10	-3,07
824,28	58,37
824,45	93,69
824,62	32,77
824,80	101,37
824,97	133,12
825,15	121,34
825,32	114,17
825,50	138,75
825,67	120,83
825,85	174,59
826,02	2,05
826,19	113,66
826,37	169,47
826,54	81,92
826,72	40,96
826,89	70,65
827,07	77,82
827,24	122,37
827,41	103,93
827,59	88,06
827,76	81,41
827,94	57,34
828,11	203,26
828,28	81,92
828,46	124,93
828,63	127,49
828,81	69,63
828,98	80,89
829,15	145,41
829,33	80,89
829,50	88,57
829,68	57,34
829,85	98,30
830,02	129,02
830,20	119,29
830,37	120,32
830,55	133,63
830,72	141,31
830,89	48,13
831,07	93,69
831,24	176,13
831,42	116,22
831,59	53,76
831,76	89,09
831,94	95,74
832,11	151,04
832,28	150,53
832,46	108,03
832,63	70,14
832,81	115,20
832,98	102,91
833,15	84,99
833,33	72,19
833,50	130,56
833,67	120,83
833,85	159,23
834,02	137,73
834,19	41,47
834,37	119,81
834,54	174,59
834,71	62,98
834,89	138,24
835,06	80,89
835,23	78,85
835,41	81,41
835,58	165,37
835,75	69,12
835,93	96,25
836,10	89,09
836,27	95,74
836,45	194,56
836,62	88,57
836,79	189,95
836,97	130,05
837,14	140,29
837,31	104,45
837,49	134,65
837,66	94,72
837,83	94,72
838,01	71,17
838,18	137,21
838,35	60,93
838,53	112,13
838,70	77,31
838,87	125,44
839,04	61,95
839,22	211,96
839,39	58,88
839,56	102,91
839,74	138,24
839,91	91,65
840,08	133,12
840,26	117,25
840,43	68,61
840,60	112,13
840,77	84,99
840,95	181,76
841,12	152,57
841,29	135,17
841,46	146,43
841,64	143,36
841,81	151,55
841,98	50,69
842,16	87,55
842,33	156,16
842,50	144,38
842,67	54,27
842,85	111,10
843,02	141,82
843,19	99,84
843,36	110,08
843,54	131,07
843,71	94,21
843,88	90,11
844,05	26,62
844,23	85,50
844,40	79,36
844,57	95,74
844,74	143,36
844,92	97,28
845,09	57,34
845,26	119,81
845,43	51,20
845,61	100,86
845,78	183,81
845,95	84,99
846,12	180,73
846,29	164,86
846,47	174,08
846,64	79,36
846,81	12,29
846,98	-32,26
847,16	104,96
847,33	119,29
847,50	90,62
847,67	50,18
847,84	123,39
848,02	80,38
848,19	98,81
848,36	111,10
848,53	101,89
848,70	133,63
848,88	62,98
849,05	156,67
849,22	113,15
849,39	76,29
849,56	9,22
849,74	75,26
849,91	139,26
850,08	116,73
850,25	58,37
850,42	160,25
850,60	132,09
850,77	153,60
850,94	152,06
851,11	126,46
851,28	110,59
851,45	104,45
851,63	153,60
851,80	123,90
851,97	105,47
852,14	182,78
852,31	164,35
852,48	101,89
852,66	83,97
852,83	146,43
853,00	110,59
853,17	100,86
853,34	139,26
853,51	150,53
853,68	143,36
853,86	123,39
854,03	92,67
854,20	114,17
854,37	51,71
854,54	185,85
854,71	119,81
854,88	134,14
855,06	123,39
855,23	156,16
855,40	112,64
855,57	41,98
855,74	137,73
855,91	160,25
856,08	88,06
856,25	178,17
856,43	126,46
856,60	41,47
856,77	171,52
856,94	102,40
857,11	134,65
857,28	91,65
857,45	143,36
857,62	63,49
857,79	132,09
857,97	140,80
858,14	109,57
858,31	195,07
858,48	150,01
858,65	115,71
858,82	35,33
858,99	88,06
859,16	76,29
859,33	43,01
859,50	113,66
859,67	18,94
859,85	124,41
860,02	10,75
860,19	107,52
860,36	73,73
860,53	132,09
860,70	165,37
860,87	150,53
861,04	216,06
861,21	166,91
861,38	203,77
861,55	119,29
861,72	130,56
861,89	79,87
862,06	84,99
862,23	123,39
862,41	97,79
862,58	105,47
862,75	139,77
862,92	131,07
863,09	74,75
863,26	86,01
863,43	137,73
863,60	136,19
863,77	119,81
863,94	112,64
864,11	159,74
864,28	73,21
864,45	32,26
864,62	172,54
864,79	151,55
864,96	99,84
865,13	197,12
865,30	128,51
865,47	144,38
865,64	54,78
865,81	124,93
865,98	202,24
866,15	106,49
866,32	156,16
866,49	172,54
866,66	176,64
866,83	132,09
867,00	127,49
867,17	128,00
867,34	29,18
867,51	200,70
867,68	48,64
867,85	192,51
868,02	138,75
868,19	88,06
868,36	126,46
868,53	151,55
868,70	96,77
868,87	46,59
869,04	224,25
869,21	130,05
869,38	101,89
869,55	61,44
869,72	171,52
869,89	81,41
870,06	143,87
870,23	105,98
870,40	77,82
870,57	126,46
870,74	35,84
870,91	166,40
871,08	72,70
871,25	116,22
871,42	163,84
871,59	151,04
871,76	114,69
871,93	35,84
872,10	55,30
872,27	215,04
872,44	44,03
872,60	58,88
872,77	189,44
872,94	109,57
873,11	92,67
873,28	128,51
873,45	109,57
873,62	193,02
873,79	113,66
873,96	47,10
874,13	146,94
874,30	40,45
874,47	138,75
874,64	150,53
874,81	64,00
874,97	83,97
875,14	139,77
875,31	40,96
875,48	111,61
875,65	115,71
875,82	133,63
875,99	143,36
876,16	174,59
876,33	171,01
876,50	113,66
876,67	109,57
876,83	46,08
877,00	95,74
877,17	166,91
877,34	21,50
877,51	131,07
877,68	117,25
877,85	31,74
878,02	91,65
878,19	114,69
878,35	93,69
878,52	151,55
878,69	72,70
878,86	96,25
879,03	79,87
879,20	179,71
879,37	178,69
879,54	90,62
879,70	148,48
879,87	93,18
880,04	173,05
880,21	112,13
880,38	157,69
880,55	116,22
880,72	119,81
880,89	58,88
881,05	205,31
881,22	142,33
881,39	102,40
881,56	114,69
881,73	33,79
881,90	126,46
882,06	90,11
882,23	59,39
882,40	76,80
882,57	145,92
882,74	102,40
882,91	171,01
883,07	53,25
883,24	141,82
883,41	69,63
883,58	76,80
883,75	102,40
883,92	49,66
884,08	91,13
884,25	114,17
884,42	93,69
884,59	149,50
884,76	133,63
884,92	68,09
885,09	144,89
885,26	111,10
885,43	112,64
885,60	152,06
885,76	141,31
885,93	80,38
886,10	168,96
886,27	150,53
886,44	157,69
886,60	190,46
886,77	105,98
886,94	96,77
887,11	61,95
887,28	93,69
887,44	167,93
887,61	135,17
887,78	80,38
887,95	94,21
888,12	173,57
888,28	102,91
888,45	127,49
888,62	70,65
888,79	79,36
888,95	58,88
889,12	87,55
889,29	146,94
889,46	108,54
889,62	144,38
889,79	142,33
889,96	120,32
890,13	97,79
890,29	129,02
890,46	101,37
890,63	82,43
890,80	135,68
890,96	130,05
891,13	116,22
891,30	109,05
891,47	41,47
891,63	205,31
891,80	126,46
891,97	140,80
892,14	125,44
892,30	101,89
892,47	194,05
892,64	82,43
892,80	70,14
892,97	47,62
893,14	82,94
893,31	157,18
893,47	54,27
893,64	156,67
893,81	128,00
893,97	142,33
894,14	140,80
>>>>>End Processed Spectral Data<<<<<
