SpectraSuite Datei
++++++++++++++++++++++++++++++++++++
Datum: Mon Dec 11 15:06:24 CET 2017
Benutzer: Praktikum-Pc1
Dark-Spektrum vorhanden: Ja
Referenz-Spektrum vorhanden: Nein
Zahl der probierten Teilspektren: 1
Spektrometer: USB4H10187
Integrationszeit (usec): 150000 (USB4H10187)
Spektren Durchschnitt berechnet: 4 (USB4H10187)
Boxcar Glättung: 0 (USB4H10187)
Dunkelstromkorrektur: Nein (USB4H10187)
Puls/Lampe aktiviert: Nein (USB4H10187)
Correct for Detector Non-linearity: Nein (USB4H10187)
Streulichtkorrektur: Nein (USB4H10187)
Anzahl Pixel in verarbeitetem Spektrum: 3648
>>>>>Begin Processed Spectral Data<<<<<
176,80	-65,54
177,02	-65,54
177,24	-65,54
177,46	8,19
177,68	31,74
177,91	128,51
178,13	127,49
178,35	134,65
178,57	56,32
178,79	191,49
179,02	210,43
179,24	73,73
179,46	178,69
179,68	70,65
179,90	58,88
180,12	179,71
180,35	145,92
180,57	103,93
180,79	168,96
181,01	113,66
181,23	95,74
181,46	144,38
181,68	211,45
181,90	158,21
182,12	199,68
182,34	229,37
182,56	168,96
182,79	124,41
183,01	104,96
183,23	163,84
183,45	182,27
183,67	78,33
183,89	160,77
184,12	175,61
184,34	161,79
184,56	234,49
184,78	145,92
185,00	187,39
185,22	120,32
185,45	97,79
185,67	190,46
185,89	170,49
186,11	100,86
186,33	155,13
186,55	184,32
186,77	163,33
187,00	176,13
187,22	194,56
187,44	148,99
187,66	91,65
187,88	112,13
188,10	237,56
188,32	115,71
188,55	160,25
188,77	212,48
188,99	92,67
189,21	215,55
189,43	182,78
189,65	110,59
189,87	164,35
190,10	252,92
190,32	157,18
190,54	157,18
190,76	166,91
190,98	133,63
191,20	246,78
191,42	131,07
191,64	112,64
191,87	147,45
192,09	204,28
192,31	95,74
192,53	153,60
192,75	141,82
192,97	152,57
193,19	158,21
193,41	98,30
193,64	187,90
193,86	152,06
194,08	142,33
194,30	126,97
194,52	163,33
194,74	173,05
194,96	44,54
195,18	176,13
195,40	89,60
195,63	135,17
195,85	43,52
196,07	56,32
196,29	163,84
196,51	163,33
196,73	149,50
196,95	140,29
197,17	113,15
197,39	139,26
197,61	180,73
197,84	156,16
198,06	103,42
198,28	163,33
198,50	35,33
198,72	217,08
198,94	195,58
199,16	169,47
199,38	248,83
199,60	124,41
199,82	124,93
200,04	166,91
200,26	151,55
200,49	121,85
200,71	83,45
200,93	210,94
201,15	87,04
201,37	81,92
201,59	145,41
201,81	169,47
202,03	230,40
202,25	94,21
202,47	107,52
202,69	122,88
202,91	162,81
203,13	117,76
203,35	126,97
203,58	99,33
203,80	174,08
204,02	88,06
204,24	59,39
204,46	155,65
204,68	161,28
204,90	124,41
205,12	166,40
205,34	129,53
205,56	172,03
205,78	196,61
206,00	117,25
206,22	108,54
206,44	102,91
206,66	96,77
206,88	193,53
207,10	136,19
207,32	240,12
207,54	162,30
207,76	141,82
207,99	115,71
208,21	118,78
208,43	164,35
208,65	130,56
208,87	188,41
209,09	155,13
209,31	92,16
209,53	86,53
209,75	237,56
209,97	146,94
210,19	111,10
210,41	160,25
210,63	121,85
210,85	129,53
211,07	204,28
211,29	120,32
211,51	192,51
211,73	210,94
211,95	194,56
212,17	180,73
212,39	151,04
212,61	176,13
212,83	89,09
213,05	218,11
213,27	242,17
213,49	166,40
213,71	112,64
213,93	178,17
214,15	225,28
214,37	186,88
214,59	169,47
214,81	104,96
215,03	91,13
215,25	131,58
215,47	186,37
215,69	160,25
215,91	160,77
216,13	149,50
216,35	177,15
216,57	99,33
216,79	185,85
217,01	198,65
217,23	136,19
217,45	161,28
217,67	205,31
217,89	231,93
218,11	161,79
218,33	175,10
218,55	152,57
218,77	113,66
218,99	121,85
219,21	156,16
219,43	112,64
219,65	208,38
219,87	249,34
220,09	195,07
220,31	165,37
220,53	146,94
220,75	118,78
220,97	116,73
221,19	59,90
221,41	110,08
221,63	103,42
221,85	200,70
222,06	133,12
222,28	200,19
222,50	183,29
222,72	144,89
222,94	115,20
223,16	125,95
223,38	198,14
223,60	38,40
223,82	154,11
224,04	243,20
224,26	126,46
224,48	147,45
224,70	201,21
224,92	117,76
225,14	171,01
225,36	220,16
225,58	128,00
225,80	183,81
226,02	153,09
226,24	164,86
226,45	144,38
226,67	116,22
226,89	42,50
227,11	124,41
227,33	161,79
227,55	68,61
227,77	156,16
227,99	119,29
228,21	152,57
228,43	162,30
228,65	121,34
228,87	180,73
229,09	35,33
229,31	97,28
229,52	99,33
229,74	43,52
229,96	197,63
230,18	129,02
230,40	162,81
230,62	142,85
230,84	267,26
231,06	-5,12
231,28	121,85
231,50	70,65
231,72	139,26
231,94	88,06
232,15	148,48
232,37	121,85
232,59	89,09
232,81	221,69
233,03	128,51
233,25	171,52
233,47	154,62
233,69	162,30
233,91	96,25
234,13	109,57
234,34	139,26
234,56	163,84
234,78	241,66
235,00	35,84
235,22	162,30
235,44	112,13
235,66	140,29
235,88	118,78
236,10	162,30
236,31	156,16
236,53	167,42
236,75	186,88
236,97	137,73
237,19	159,74
237,41	115,20
237,63	178,17
237,85	135,17
238,07	174,59
238,28	117,76
238,50	163,33
238,72	129,53
238,94	214,52
239,16	157,18
239,38	134,14
239,60	222,72
239,81	107,52
240,03	148,99
240,25	80,38
240,47	205,82
240,69	165,37
240,91	155,13
241,13	282,62
241,34	159,74
241,56	169,98
241,78	139,26
242,00	146,43
242,22	96,25
242,44	237,05
242,66	115,71
242,87	88,57
243,09	143,36
243,31	103,42
243,53	110,08
243,75	158,21
243,97	133,12
244,19	182,27
244,40	195,07
244,62	151,04
244,84	275,45
245,06	154,11
245,28	117,25
245,50	178,17
245,71	243,20
245,93	129,02
246,15	200,19
246,37	194,05
246,59	260,60
246,81	141,31
247,02	113,15
247,24	175,10
247,46	99,33
247,68	181,25
247,90	156,67
248,11	160,77
248,33	138,75
248,55	196,61
248,77	90,62
248,99	171,01
249,21	64,00
249,42	157,18
249,64	192,00
249,86	129,53
250,08	156,16
250,30	166,91
250,51	179,71
250,73	93,18
250,95	128,51
251,17	200,19
251,39	192,00
251,60	231,42
251,82	254,46
252,04	193,53
252,26	96,25
252,48	120,32
252,69	215,04
252,91	182,78
253,13	127,49
253,35	253,44
253,57	189,95
253,78	92,67
254,00	185,34
254,22	119,81
254,44	124,41
254,65	160,25
254,87	127,49
255,09	145,41
255,31	162,30
255,53	113,66
255,74	144,38
255,96	182,27
256,18	194,05
256,40	184,32
256,61	135,68
256,83	242,17
257,05	132,09
257,27	193,53
257,48	143,87
257,70	177,15
257,92	137,21
258,14	190,46
258,36	114,69
258,57	201,21
258,79	157,69
259,01	159,74
259,23	124,93
259,44	71,68
259,66	179,20
259,88	245,24
260,10	147,97
260,31	174,08
260,53	218,11
260,75	105,98
260,97	181,76
261,18	167,42
261,40	209,92
261,62	102,91
261,84	178,69
262,05	160,25
262,27	217,08
262,49	177,15
262,71	185,85
262,92	194,05
263,14	114,17
263,36	136,19
263,57	226,81
263,79	202,75
264,01	174,08
264,23	107,01
264,44	168,45
264,66	171,52
264,88	208,38
265,10	132,61
265,31	247,29
265,53	77,31
265,75	209,40
265,96	161,28
266,18	246,78
266,40	194,56
266,62	233,98
266,83	227,32
267,05	112,13
267,27	199,16
267,48	284,67
267,70	75,26
267,92	183,29
268,14	189,95
268,35	231,42
268,57	184,32
268,79	239,61
269,00	201,72
269,22	207,87
269,44	147,45
269,65	184,83
269,87	151,04
270,09	212,48
270,31	147,45
270,52	229,37
270,74	201,72
270,96	123,39
271,17	209,40
271,39	172,03
271,61	240,64
271,82	221,18
272,04	201,72
272,26	202,24
272,47	234,49
272,69	172,54
272,91	105,98
273,12	183,81
273,34	186,88
273,56	144,38
273,77	144,89
273,99	183,29
274,21	223,74
274,42	129,02
274,64	230,40
274,86	79,36
275,08	131,58
275,29	124,93
275,51	230,91
275,72	164,86
275,94	218,62
276,16	155,13
276,37	167,93
276,59	75,77
276,81	111,10
277,02	184,83
277,24	195,58
277,46	194,56
277,67	138,24
277,89	209,92
278,11	176,13
278,32	177,66
278,54	71,68
278,76	295,93
278,97	194,56
279,19	223,74
279,41	136,70
279,62	205,82
279,84	204,80
280,05	133,12
280,27	175,10
280,49	159,74
280,70	172,03
280,92	161,28
281,14	193,02
281,35	17,92
281,57	159,74
281,79	141,31
282,00	204,28
282,22	275,45
282,43	212,48
282,65	176,13
282,87	124,93
283,08	212,48
283,30	265,72
283,52	268,28
283,73	119,29
283,95	172,03
284,16	142,33
284,38	212,48
284,60	243,20
284,81	205,31
285,03	188,41
285,24	141,82
285,46	199,68
285,68	149,50
285,89	188,93
286,11	102,40
286,32	224,76
286,54	157,69
286,76	156,67
286,97	289,28
287,19	175,61
287,40	164,35
287,62	224,25
287,84	182,78
288,05	200,19
288,27	157,69
288,48	195,07
288,70	154,62
288,92	141,82
289,13	176,13
289,35	171,52
289,56	188,93
289,78	185,34
289,99	190,46
290,21	174,08
290,43	161,79
290,64	126,46
290,86	193,02
291,07	175,10
291,29	214,01
291,51	152,57
291,72	227,84
291,94	232,44
292,15	180,22
292,37	192,51
292,58	188,41
292,80	186,88
293,01	141,31
293,23	228,35
293,45	236,54
293,66	184,83
293,88	253,44
294,09	93,69
294,31	167,93
294,52	166,91
294,74	136,70
294,96	196,60
295,17	173,57
295,39	189,95
295,60	196,61
295,82	157,69
296,03	185,34
296,25	117,76
296,46	188,93
296,68	184,83
296,89	114,69
297,11	104,45
297,32	241,15
297,54	264,19
297,76	164,35
297,97	136,70
298,19	211,96
298,40	229,37
298,62	185,85
298,83	195,07
299,05	252,41
299,26	174,08
299,48	163,84
299,69	258,04
299,91	125,44
300,12	235,52
300,34	213,50
300,55	245,24
300,77	223,23
300,98	61,44
301,20	134,14
301,41	115,71
301,63	153,60
301,84	104,45
302,06	190,46
302,28	110,59
302,49	118,27
302,71	245,76
302,92	55,30
303,14	156,67
303,35	260,09
303,57	194,05
303,78	236,54
304,00	198,65
304,21	117,25
304,43	151,04
304,64	171,01
304,86	134,14
305,07	193,02
305,29	166,40
305,50	149,50
305,71	211,96
305,93	184,32
306,14	251,39
306,36	223,23
306,57	228,35
306,79	229,37
307,00	84,99
307,22	229,88
307,43	98,81
307,65	249,85
307,86	180,22
308,08	193,02
308,29	210,94
308,51	107,52
308,72	201,21
308,94	180,22
309,15	191,49
309,37	193,02
309,58	110,59
309,80	144,89
310,01	205,82
310,22	215,04
310,44	199,16
310,65	196,60
310,87	216,57
311,08	252,41
311,30	130,56
311,51	222,20
311,73	188,93
311,94	132,61
312,16	126,97
312,37	187,90
312,58	232,44
312,80	137,73
313,01	199,16
313,23	156,16
313,44	194,56
313,66	117,76
313,87	265,72
314,09	95,23
314,30	160,25
314,51	174,59
314,73	130,05
314,94	203,77
315,16	190,46
315,37	234,49
315,59	155,13
315,80	151,55
316,01	169,98
316,23	178,17
316,44	254,97
316,66	218,62
316,87	234,49
317,09	174,08
317,30	201,21
317,51	169,98
317,73	231,42
317,94	132,61
318,16	257,53
318,37	143,87
318,58	36,86
318,80	245,76
319,01	167,93
319,23	261,63
319,44	123,90
319,66	155,65
319,87	194,56
320,08	247,29
320,30	205,82
320,51	166,40
320,73	92,67
320,94	180,22
321,15	173,05
321,37	186,37
321,58	184,32
321,80	231,42
322,01	174,08
322,22	121,85
322,44	183,29
322,65	208,38
322,86	174,59
323,08	241,66
323,29	200,19
323,51	162,30
323,72	167,93
323,93	221,18
324,15	188,93
324,36	172,54
324,58	215,55
324,79	212,48
325,00	188,41
325,22	185,34
325,43	161,79
325,64	195,58
325,86	163,84
326,07	139,26
326,28	225,28
326,50	164,35
326,71	157,69
326,93	119,81
327,14	196,09
327,35	74,24
327,57	212,99
327,78	185,85
327,99	225,79
328,21	173,57
328,42	236,54
328,63	279,04
328,85	187,90
329,06	141,82
329,27	174,59
329,49	186,37
329,70	122,37
329,91	235,00
330,13	152,06
330,34	210,43
330,56	72,19
330,77	135,17
330,98	221,18
331,20	182,78
331,41	253,95
331,62	182,27
331,84	160,25
332,05	167,93
332,26	291,84
332,48	220,16
332,69	176,64
332,90	152,06
333,11	147,97
333,33	95,23
333,54	207,87
333,75	175,61
333,97	72,70
334,18	176,13
334,39	231,93
334,61	177,66
334,82	266,75
335,03	166,91
335,25	222,20
335,46	204,80
335,67	278,52
335,89	149,50
336,10	186,88
336,31	178,69
336,53	136,70
336,74	219,64
336,95	238,59
337,16	143,36
337,38	143,36
337,59	319,48
337,80	159,23
338,02	205,82
338,23	233,98
338,44	187,39
338,65	206,84
338,87	223,74
339,08	207,87
339,29	246,27
339,51	196,61
339,72	166,91
339,93	237,05
340,14	224,25
340,36	232,96
340,57	226,30
340,78	164,35
341,00	121,85
341,21	211,96
341,42	287,74
341,63	129,53
341,85	111,61
342,06	145,41
342,27	202,24
342,49	221,69
342,70	198,65
342,91	231,42
343,12	218,11
343,34	268,28
343,55	114,17
343,76	253,95
343,97	207,87
344,19	257,53
344,40	173,05
344,61	199,68
344,82	187,90
345,04	135,17
345,25	205,82
345,46	202,24
345,67	194,56
345,89	198,65
346,10	216,57
346,31	121,85
346,52	139,77
346,74	121,34
346,95	203,77
347,16	114,69
347,37	155,13
347,59	180,22
347,80	176,64
348,01	224,76
348,22	184,32
348,43	159,74
348,65	171,01
348,86	192,51
349,07	258,56
349,28	136,19
349,50	182,27
349,71	222,20
349,92	155,13
350,13	164,35
350,34	119,81
350,56	163,84
350,77	228,86
350,98	187,90
351,19	167,93
351,41	247,80
351,62	281,60
351,83	93,18
352,04	218,11
352,25	198,14
352,47	223,74
352,68	347,64
352,89	104,45
353,10	208,38
353,31	232,96
353,53	225,28
353,74	165,89
353,95	172,03
354,16	246,27
354,37	230,91
354,59	214,52
354,80	236,54
355,01	161,79
355,22	120,83
355,43	159,23
355,65	122,88
355,86	245,76
356,07	196,61
356,28	159,23
356,49	131,07
356,70	224,25
356,92	179,20
357,13	148,99
357,34	202,24
357,55	233,47
357,76	240,64
357,98	105,47
358,19	195,07
358,40	178,69
358,61	157,18
358,82	175,10
359,03	174,08
359,25	267,77
359,46	266,75
359,67	243,20
359,88	138,75
360,09	212,99
360,30	130,56
360,51	157,18
360,73	288,25
360,94	204,28
361,15	134,65
361,36	146,94
361,57	171,01
361,78	199,16
362,00	96,77
362,21	222,72
362,42	218,11
362,63	175,10
362,84	137,21
363,05	114,17
363,26	160,25
363,48	196,60
363,69	217,08
363,90	183,29
364,11	101,37
364,32	126,97
364,53	168,45
364,74	140,80
364,95	156,16
365,17	161,28
365,38	184,83
365,59	261,12
365,80	226,81
366,01	118,27
366,22	169,98
366,43	122,88
366,64	194,05
366,86	181,76
367,07	192,51
367,28	239,61
367,49	180,22
367,70	250,36
367,91	179,20
368,12	104,45
368,33	122,88
368,54	244,73
368,76	161,28
368,97	161,28
369,18	142,85
369,39	155,65
369,60	152,06
369,81	162,30
370,02	197,63
370,23	179,71
370,44	135,68
370,65	104,96
370,87	121,34
371,08	208,38
371,29	196,61
371,50	224,25
371,71	245,24
371,92	225,79
372,13	228,86
372,34	144,38
372,55	128,00
372,76	203,77
372,97	189,44
373,18	245,24
373,40	179,71
373,61	171,52
373,82	186,37
374,03	227,32
374,24	190,97
374,45	115,20
374,66	244,22
374,87	281,60
375,08	129,02
375,29	183,81
375,50	210,94
375,71	140,80
375,92	251,39
376,13	141,82
376,34	181,76
376,56	204,80
376,77	260,09
376,98	207,36
377,19	229,37
377,40	171,52
377,61	233,98
377,82	202,24
378,03	204,80
378,24	163,33
378,45	195,07
378,66	176,13
378,87	148,48
379,08	197,63
379,29	197,63
379,50	274,43
379,71	114,69
379,92	146,94
380,13	180,73
380,34	195,58
380,55	241,15
380,76	235,00
380,97	267,26
381,18	222,72
381,39	217,08
381,60	236,54
381,81	150,01
382,02	235,52
382,24	172,03
382,45	153,60
382,66	168,45
382,87	207,36
383,08	182,27
383,29	167,42
383,50	253,95
383,71	145,92
383,92	167,42
384,13	149,50
384,34	210,94
384,55	152,06
384,76	143,36
384,97	150,53
385,18	134,65
385,39	146,94
385,60	169,47
385,81	184,83
386,02	246,27
386,23	211,45
386,44	132,09
386,65	156,67
386,86	150,01
387,07	210,43
387,28	172,03
387,49	208,89
387,70	139,77
387,91	182,78
388,12	154,62
388,32	143,36
388,53	210,94
388,74	158,21
388,95	120,83
389,16	175,61
389,37	153,09
389,58	167,93
389,79	253,95
390,00	215,55
390,21	223,74
390,42	191,49
390,63	179,71
390,84	156,67
391,05	291,84
391,26	265,21
391,47	147,97
391,68	159,74
391,89	251,39
392,10	179,71
392,31	198,14
392,52	176,13
392,73	52,22
392,94	277,50
393,15	151,04
393,36	182,78
393,57	242,68
393,78	186,37
393,98	249,85
394,19	163,33
394,40	283,13
394,61	148,48
394,82	205,31
395,03	193,53
395,24	227,32
395,45	132,09
395,66	193,02
395,87	123,90
396,08	153,09
396,29	217,08
396,50	203,77
396,71	160,25
396,92	142,33
397,12	211,96
397,33	192,51
397,54	151,04
397,75	198,14
397,96	226,30
398,17	233,47
398,38	147,45
398,59	259,07
398,80	76,29
399,01	259,58
399,22	185,34
399,43	166,40
399,63	223,74
399,84	198,14
400,05	215,55
400,26	164,35
400,47	188,93
400,68	244,22
400,89	185,34
401,10	206,84
401,31	243,20
401,52	113,15
401,72	229,88
401,93	145,41
402,14	225,28
402,35	268,28
402,56	243,20
402,77	181,76
402,98	197,12
403,19	205,31
403,40	199,16
403,60	227,84
403,81	285,18
404,02	211,45
404,23	238,08
404,44	230,40
404,65	225,28
404,86	287,74
405,07	251,90
405,27	209,40
405,48	194,05
405,69	173,57
405,90	263,68
406,11	288,25
406,32	234,49
406,53	269,31
406,74	260,60
406,94	236,03
407,15	221,69
407,36	172,03
407,57	224,76
407,78	276,99
407,99	246,27
408,20	233,47
408,40	288,25
408,61	297,47
408,82	363,51
409,03	247,29
409,24	308,73
409,45	277,50
409,65	341,50
409,86	289,79
410,07	253,44
410,28	329,21
410,49	356,35
410,70	371,71
410,90	393,72
411,11	318,46
411,32	330,23
411,53	411,64
411,74	387,58
411,95	421,88
412,15	482,81
412,36	327,16
412,57	445,95
412,78	439,29
412,99	507,90
413,20	412,67
413,40	422,39
413,61	528,89
413,82	541,18
414,03	553,46
414,24	598,01
414,44	559,61
414,65	528,89
414,86	539,13
415,07	643,06
415,28	668,15
415,48	695,80
415,69	607,22
415,90	720,88
416,11	720,37
416,32	720,89
416,53	717,81
416,73	842,23
416,94	794,61
417,15	849,91
417,36	883,19
417,56	868,34
417,77	824,82
417,98	866,29
418,19	1039,34
418,40	955,38
418,60	1008,62
418,81	1047,54
419,02	1043,95
419,23	1033,71
419,44	1023,47
419,64	1142,77
419,85	1180,14
420,06	1186,80
420,27	1212,91
420,47	1211,37
420,68	1313,77
420,89	1332,72
421,10	1388,01
421,30	1458,15
421,51	1475,56
421,72	1415,66
421,93	1493,99
422,14	1559,02
422,34	1604,07
422,55	1546,73
422,76	1621,99
422,97	1704,42
423,17	1708,52
423,38	1735,14
423,59	1723,37
423,80	1803,75
424,00	1787,36
424,21	1924,58
424,42	1928,67
424,63	1882,08
424,83	1928,16
425,04	2105,31
425,25	2062,82
425,46	2218,46
425,66	2130,91
425,87	2278,37
426,08	2284,51
426,28	2375,13
426,49	2342,88
426,70	2481,11
426,91	2547,16
427,11	2526,17
427,32	2647,00
427,53	2632,66
427,74	2654,17
427,94	2708,44
428,15	2819,03
428,36	2884,05
428,56	2837,46
428,77	2976,21
428,98	2924,50
429,19	3034,07
429,39	3106,77
429,60	3091,92
429,81	3200,98
430,01	3274,70
430,22	3297,23
430,43	3273,68
430,64	3288,01
430,84	3283,92
431,05	3546,57
431,26	3578,83
431,46	3605,45
431,67	3576,27
431,88	3823,05
432,08	3862,47
432,29	3822,53
432,50	3905,99
432,70	4083,14
432,91	4056,00
433,12	4116,42
433,33	4216,26
433,53	4294,59
433,74	4417,47
433,95	4458,94
434,15	4378,05
434,36	4566,97
434,57	4609,47
434,77	4601,27
434,98	4786,61
435,19	4846,01
435,39	4929,46
435,60	5009,33
435,81	5283,25
436,01	5185,46
436,22	5255,09
436,43	5418,41
436,63	5537,20
436,84	5581,23
437,05	5519,79
437,25	5545,39
437,46	5810,60
437,67	5707,69
437,87	5850,02
438,08	5885,35
438,29	6070,18
438,49	6104,48
438,70	6138,79
438,91	6412,19
439,11	6589,34
439,32	6816,15
439,52	6575,52
439,73	6692,25
439,94	6859,67
440,14	7014,29
440,35	7143,32
440,56	7074,20
440,76	7194,51
440,97	7425,93
441,18	7561,61
441,38	7422,86
441,59	7700,87
441,79	7828,36
442,00	8055,69
442,21	8007,05
442,41	8228,23
442,62	8172,93
442,83	8356,22
443,03	8420,22
443,24	8685,44
443,44	8857,46
443,65	9042,81
443,86	8744,31
444,06	9033,59
444,27	9301,87
444,48	9495,41
444,68	9425,78
444,89	9622,89
445,09	9876,84
445,30	9615,73
445,51	9988,46
445,71	9992,55
445,92	10183,01
446,12	10305,89
446,33	10316,13
446,54	10423,65
446,74	10578,78
446,95	10357,09
447,15	10702,68
447,36	10796,89
447,57	10473,82
447,77	10727,77
447,98	10809,69
448,18	10659,17
448,39	10380,64
448,59	11006,30
448,80	10916,19
449,01	10936,67
449,21	10863,45
449,42	10847,07
449,62	11094,36
449,83	10869,08
450,04	10804,57
450,24	11159,89
450,45	10926,43
450,65	10825,56
450,86	10754,40
451,06	10984,28
451,27	10884,44
451,47	10505,06
451,68	10535,78
451,89	10550,11
452,09	10593,12
452,30	10178,92
452,50	10315,11
452,71	10521,44
452,91	10013,54
453,12	10068,84
453,33	10062,18
453,53	9742,19
453,74	9970,02
453,94	9716,59
454,15	9212,28
454,35	9259,89
454,56	9333,62
454,76	9435,50
454,97	8984,95
455,17	8925,56
455,38	9049,97
455,58	8800,63
455,79	8661,88
456,00	8618,36
456,20	8373,63
456,41	8477,57
456,61	8023,43
456,82	7986,05
457,02	8024,45
457,23	8118,66
457,43	7891,34
457,64	7539,60
457,84	7526,80
458,05	7582,60
458,25	7526,29
458,46	7449,49
458,66	7259,54
458,87	7269,78
459,07	7302,03
459,28	7272,34
459,48	7110,04
459,69	7057,81
459,89	6949,27
460,10	7078,80
460,30	7175,06
460,51	6861,72
460,71	6997,40
460,92	6896,02
461,12	6816,15
461,33	6793,11
461,53	6655,39
461,74	6543,26
461,94	6645,15
462,15	6729,11
462,35	6694,81
462,56	6521,24
462,76	6584,73
462,97	6583,71
463,17	6385,05
463,38	6470,56
463,58	6398,37
463,79	6576,03
463,99	6410,14
464,20	6564,76
464,40	6420,89
464,61	6355,87
464,81	6532,00
465,02	6387,61
465,22	6424,99
465,43	6285,22
465,63	6336,93
465,83	6291,87
466,04	6528,41
466,24	6305,70
466,45	6568,35
466,65	6308,26
466,86	6365,09
467,06	6181,79
467,27	6356,90
467,47	6473,12
467,68	6251,42
467,88	6278,05
468,08	6452,13
468,29	6215,07
468,49	6327,20
468,70	6307,74
468,90	6253,47
469,11	6412,19
469,31	6214,56
469,52	6199,71
469,72	6667,67
469,92	6300,58
470,13	6332,83
470,33	6277,02
470,54	6218,15
470,74	6396,83
470,95	6284,70
471,15	6388,64
471,35	6292,90
471,56	6276,00
471,76	6418,33
471,97	6381,47
472,17	6238,62
472,38	6281,63
472,58	6328,22
472,78	6454,17
472,99	6381,98
473,19	6420,89
473,40	6475,17
473,60	6286,75
473,80	6490,01
474,01	6483,36
474,21	6519,71
474,42	6626,71
474,62	6674,84
474,83	6439,84
475,03	6759,83
475,23	6695,32
475,44	6798,74
475,64	6865,82
475,85	6768,02
476,05	6714,27
476,25	6987,67
476,46	6969,24
476,66	6973,33
476,86	7093,14
477,07	7204,24
477,27	7346,06
477,48	7192,47
477,68	7248,79
477,88	7514,51
478,09	7382,42
478,29	7543,69
478,50	7581,07
478,70	7604,11
478,90	7611,79
479,11	7728,52
479,31	7982,98
479,51	8149,38
479,72	8048,01
479,92	8042,89
480,12	8128,39
480,33	8269,19
480,53	8464,25
480,74	8508,80
480,94	8569,21
481,14	8782,71
481,35	8731,00
481,55	8913,27
481,75	8909,69
481,96	9173,36
482,16	9252,72
482,36	9398,64
482,57	9509,74
482,77	9352,56
482,97	9699,69
483,18	9730,92
483,38	9963,88
483,58	10010,47
483,79	9925,48
483,99	10176,87
484,19	10192,23
484,40	10387,81
484,60	10393,95
484,80	10780,00
485,01	10932,06
485,21	10819,93
485,41	10870,62
485,62	11166,04
485,82	11284,82
486,02	11338,58
486,23	11576,66
486,43	11618,64
486,63	11764,56
486,84	11995,98
487,04	12003,66
487,24	12069,19
487,45	12219,72
487,65	12481,86
487,85	12464,45
488,06	12792,64
488,26	12692,29
488,46	12951,35
488,67	12953,40
488,87	13134,65
489,07	13272,89
489,27	13483,83
489,48	13543,22
489,68	13652,27
489,88	13892,91
490,09	13980,97
490,29	14084,39
490,49	14295,33
490,70	14449,96
490,90	14582,56
491,10	14601,51
491,30	14867,74
491,51	14712,61
491,71	15323,93
491,91	15174,94
492,12	15459,60
492,32	15361,81
492,52	15538,45
492,72	15654,67
492,93	15831,82
493,13	16033,55
493,33	16070,92
493,53	16134,41
493,74	16403,72
493,94	16796,93
494,14	16554,24
494,34	16967,93
494,55	16954,62
494,75	17105,66
494,95	17289,46
495,16	17537,78
495,36	17467,64
495,56	17596,66
495,76	17650,42
495,97	17822,45
496,17	17853,17
496,37	17993,45
496,57	18272,49
496,78	18309,35
496,98	18313,96
497,18	18631,40
497,38	18616,04
497,59	18864,35
497,79	18718,95
497,99	19013,34
498,19	19020,51
498,39	19410,65
498,60	19332,82
498,80	19513,05
499,00	19513,56
499,20	19763,41
499,41	19882,19
499,61	19814,10
499,81	20001,49
500,01	20233,42
500,22	20157,64
500,42	20171,47
500,62	20277,96
500,82	20463,30
501,02	20608,71
501,23	20581,06
501,43	20587,72
501,63	20698,82
501,83	20918,98
502,03	20578,50
502,24	20975,30
502,44	20911,30
502,64	21211,32
502,84	21025,47
503,05	21171,90
503,25	21428,92
503,45	21379,77
503,65	21690,04
503,85	21689,01
504,06	21858,48
504,26	21779,64
504,46	22190,77
504,66	21994,16
504,86	22584,49
505,06	22130,86
505,27	22237,87
505,47	22673,06
505,67	22646,95
505,87	22596,78
506,07	22968,48
506,28	23095,46
506,48	22946,98
506,68	23043,23
506,88	23095,97
507,08	23128,74
507,28	23270,04
507,49	23421,08
507,69	23487,64
507,89	23281,31
508,09	23698,58
508,29	23781,53
508,49	23790,23
508,70	23854,23
508,90	23952,02
509,10	24003,73
509,30	23920,28
509,50	24129,17
509,70	24138,90
509,91	24259,21
510,11	24306,32
510,31	24353,93
510,51	24232,59
510,71	24576,14
510,91	24556,68
511,11	24573,07
511,32	24712,84
511,52	24661,64
511,72	25017,99
511,92	24986,75
512,12	25021,06
512,32	24776,33
512,52	25201,79
512,73	25207,42
512,93	25404,03
513,13	25299,58
513,33	25512,57
513,53	25618,55
513,73	25749,62
513,93	25523,32
514,13	25500,28
514,34	25855,61
514,54	25846,90
514,74	26040,95
514,94	26169,46
515,14	26106,99
515,34	26177,14
515,54	26335,34
515,74	26394,22
515,94	26406,51
516,15	26688,10
516,35	26722,41
516,55	26813,54
516,75	26847,33
516,95	26926,69
517,15	26817,64
517,35	26860,65
517,55	27106,91
517,75	27282,53
517,95	27054,18
518,16	27342,94
518,36	27127,91
518,56	27258,98
518,76	27395,68
518,96	27587,68
519,16	27511,90
519,36	27598,94
519,56	27577,95
519,76	27684,44
519,96	27581,02
520,16	27922,52
520,37	27803,74
520,57	28064,34
520,77	28251,73
520,97	28507,21
521,17	28142,16
521,37	28324,43
521,57	28203,60
521,77	28376,66
521,97	28494,93
522,17	28457,04
522,37	28918,34
522,57	28394,06
522,77	28724,81
522,97	28717,64
523,17	28717,13
523,37	28836,42
523,58	29075,52
523,78	29151,30
523,98	29130,31
524,18	29025,86
524,38	29134,40
524,58	29290,05
524,78	29054,53
524,98	29424,19
525,18	29282,37
525,38	29354,56
525,58	29270,59
525,78	29588,03
525,98	29634,11
526,18	29685,31
526,38	29385,79
526,58	29684,28
526,78	29783,10
526,98	29805,63
527,18	29729,34
527,38	29888,57
527,58	29761,59
527,78	29889,59
527,98	29958,20
528,18	29998,65
528,38	30115,89
528,58	29941,30
528,78	30271,54
528,98	30277,17
529,18	30101,04
529,38	30137,40
529,58	30041,14
529,78	30347,31
529,98	30121,01
530,18	30578,73
530,38	30713,90
530,58	30622,25
530,78	30849,07
530,98	30553,13
531,18	30781,99
531,38	30911,02
531,58	31072,81
531,78	30905,90
531,98	30924,33
532,18	30965,29
532,38	31054,37
532,58	31184,93
532,78	31091,75
532,98	31547,42
533,18	31242,28
533,38	31204,39
533,58	31488,54
533,78	31542,81
533,98	31684,64
534,18	31314,47
534,38	31656,48
534,58	31755,29
534,78	31850,52
534,98	31751,20
535,18	31926,30
535,38	32192,02
535,58	32069,65
535,78	32075,29
535,98	32109,08
536,18	32314,39
536,38	32188,44
536,58	32405,01
536,78	32304,66
536,98	32385,55
537,18	32632,85
537,38	32173,59
537,58	32523,79
537,78	32711,69
537,98	32709,13
538,17	32638,48
538,37	32457,74
538,57	32742,41
538,77	32635,41
538,97	32768,01
539,17	32672,27
539,37	32793,10
539,57	33102,85
539,77	33057,80
539,97	33028,62
540,17	33058,31
540,37	32973,32
540,57	32985,61
540,77	33199,11
540,97	33308,68
541,16	33310,72
541,36	33547,26
541,56	33361,92
541,76	33320,96
541,96	33703,42
542,16	33302,53
542,36	33697,79
542,56	33723,90
542,76	34088,95
542,96	33805,82
543,16	33787,90
543,36	33941,50
543,55	33862,65
543,75	34320,88
543,95	34209,78
544,15	34060,28
544,35	34030,07
544,55	34245,11
544,75	34306,55
544,95	34562,54
545,15	34092,02
545,35	34442,23
545,54	34653,17
545,74	34634,74
545,94	34217,46
546,14	35024,87
546,34	34881,00
546,54	34916,33
546,74	34855,40
546,94	34929,13
547,14	34828,78
547,33	35175,40
547,53	34712,56
547,73	35121,13
547,93	35320,81
548,13	34814,44
548,33	35098,09
548,53	35417,06
548,72	34872,81
548,92	35449,83
549,12	35355,62
549,32	35203,56
549,52	35364,32
549,72	35454,95
549,92	35475,94
550,12	35360,74
550,31	35963,87
550,51	35332,07
550,71	35877,85
550,91	35927,52
551,11	35724,77
551,31	36073,43
551,50	35888,60
551,70	35915,23
551,90	36247,00
552,10	36437,46
552,30	36262,36
552,50	36269,53
552,70	36407,25
552,89	36571,60
553,09	36494,80
553,29	36611,54
553,49	36549,07
553,69	36858,32
553,88	36635,09
554,08	36601,30
554,28	36805,58
554,48	36620,24
554,68	36875,21
554,88	36932,04
555,07	37091,79
555,27	37239,24
555,47	37190,60
555,67	37210,57
555,87	37559,23
556,06	37483,46
556,26	37661,63
556,46	37803,46
556,66	37810,62
556,86	37701,57
557,06	37863,36
557,25	38000,06
557,45	37659,07
557,65	38345,14
557,85	38180,28
558,05	38129,59
558,24	38191,03
558,44	38378,93
558,64	38684,08
558,84	38400,95
559,03	38360,50
559,23	38482,36
559,43	38629,81
559,63	38647,73
559,83	38540,21
560,02	38537,65
560,22	39025,07
560,42	39153,07
560,62	39448,49
560,82	38833,58
561,01	38741,42
561,21	39025,58
561,41	39447,46
561,61	39387,56
561,80	39482,28
562,00	39642,02
562,20	39593,38
562,40	39813,54
562,59	39750,05
562,79	39653,28
562,99	39860,13
563,19	40053,66
563,38	40046,49
563,58	40328,60
563,78	40401,82
563,98	40597,40
564,17	40321,94
564,37	40581,01
564,57	40740,24
564,77	40546,20
564,96	40825,23
565,16	40682,90
565,36	41097,61
565,56	40975,25
565,75	40958,35
565,95	40950,16
566,15	41308,04
566,35	41469,83
566,54	41586,57
566,74	41794,95
566,94	41611,14
567,14	41678,21
567,33	41895,30
567,53	42006,91
567,73	42035,07
567,92	41953,15
568,12	42194,81
568,32	42169,21
568,52	42287,99
568,71	41957,25
568,91	42405,24
569,11	42773,88
569,30	42248,06
569,50	42610,04
569,70	42778,48
569,90	42663,28
570,09	42963,82
570,29	43173,23
570,49	43293,04
570,68	42862,45
570,88	42918,77
571,08	43196,27
571,27	43286,89
571,47	43423,08
571,67	43631,97
571,87	43673,45
572,06	43449,19
572,26	43820,39
572,46	43716,96
572,65	43725,16
572,85	43658,60
573,05	44358,49
573,24	43720,04
573,44	43994,46
573,64	44422,49
573,83	44392,28
574,03	44384,09
574,23	45047,63
574,42	44523,35
574,62	44791,12
574,82	44807,51
575,01	44523,35
575,21	44903,76
575,41	45287,76
575,60	44965,20
575,80	45206,35
576,00	45405,00
576,19	45463,88
576,39	45036,37
576,59	45788,49
576,78	45557,06
576,98	45448,01
577,18	45792,07
577,37	45979,97
577,57	45848,39
577,77	45859,65
577,96	45815,11
578,16	46349,12
578,35	46228,29
578,55	46000,45
578,75	46377,79
578,94	45995,33
579,14	46674,23
579,34	46658,87
579,53	46735,16
579,73	46562,62
579,93	46610,74
580,12	46769,97
580,32	46497,08
580,51	46738,74
580,71	46884,15
580,91	46671,67
581,10	47052,08
581,30	47004,47
581,50	47076,15
581,69	46923,57
581,89	46999,35
582,08	47289,13
582,28	47152,94
582,48	47545,13
582,67	47257,90
582,87	47452,46
583,06	47652,14
583,26	47677,22
583,46	47702,82
583,65	47594,79
583,85	47845,16
584,04	47722,28
584,24	47850,28
584,44	47866,66
584,63	48197,41
584,83	48139,04
585,02	48084,26
585,22	48210,72
585,42	48145,70
585,61	48089,38
585,81	48001,83
586,00	48194,34
586,20	48542,49
586,39	48322,33
586,59	48391,45
586,79	48835,35
586,98	48081,19
587,18	48584,47
587,37	48947,99
587,57	48591,64
587,76	48758,04
587,96	48796,44
588,16	48822,55
588,35	48806,17
588,55	48404,77
588,74	48962,32
588,94	48793,37
589,13	48700,70
589,33	48861,46
589,52	48668,95
589,72	48524,06
589,92	48815,90
590,11	48682,27
590,31	48822,55
590,50	48959,25
590,70	48701,72
590,89	48651,55
591,09	48689,95
591,28	48810,78
591,48	49102,10
591,67	48774,94
591,87	48964,88
592,06	48884,50
592,26	48768,28
592,46	48856,85
592,65	48906,52
592,85	48731,93
593,04	49378,57
593,24	49112,34
593,43	48897,81
593,63	49308,94
593,82	49071,89
594,02	48997,65
594,21	49430,29
594,41	48823,06
594,60	49015,57
594,80	48886,04
594,99	48777,50
595,19	48935,70
595,38	49387,79
595,58	49045,78
595,77	48967,96
595,97	49141,01
596,16	49125,14
596,36	48821,53
596,55	48936,73
596,75	49031,96
596,94	48983,32
597,14	48920,34
597,33	48901,91
597,53	49096,47
597,72	49234,70
597,92	49057,04
598,11	48933,14
598,31	48859,93
598,50	48722,71
598,70	49075,99
598,89	48740,12
599,09	48366,37
599,28	48724,76
599,48	48772,89
599,67	49008,92
599,87	48609,56
600,06	48515,36
600,26	48203,55
600,45	48495,90
600,64	48626,46
600,84	48399,65
601,03	48665,37
601,23	48545,56
601,42	48301,85
601,62	47981,86
601,81	48215,33
602,01	48345,89
602,20	48253,73
602,40	48222,50
602,59	47956,77
602,78	48255,26
602,98	47635,75
603,17	48244,51
603,37	48156,45
603,56	48104,23
603,76	48239,39
603,95	48025,89
604,15	47676,20
604,34	47863,08
604,53	47652,65
604,73	47731,50
604,92	47556,91
605,12	47822,63
605,31	47663,40
605,51	47664,94
605,70	47550,25
605,89	47607,08
606,09	47334,19
606,28	47206,19
606,48	47237,94
606,67	47079,22
606,87	47388,46
607,06	46817,08
607,25	46802,74
607,45	47175,47
607,64	46831,41
607,84	47067,95
608,03	46655,29
608,22	46899,00
608,42	46722,87
608,61	46406,46
608,81	46178,62
609,00	46236,99
609,19	46046,53
609,39	45970,75
609,58	45972,80
609,78	46223,68
609,97	45945,67
610,16	45792,07
610,36	45851,97
610,55	45517,13
610,75	45425,48
610,94	45605,19
611,13	45377,36
611,33	45277,01
611,52	45162,83
611,71	44991,31
611,91	45200,72
612,10	45104,46
612,30	44886,36
612,49	44789,59
612,68	45061,46
612,88	44754,26
613,07	44578,65
613,26	44893,01
613,46	44604,25
613,65	44376,92
613,84	44900,69
614,04	44750,17
614,23	44171,61
614,43	44962,64
614,62	44523,35
614,81	44451,16
615,01	44392,79
615,20	44429,15
615,39	44434,27
615,59	43953,51
615,78	43743,59
615,97	43812,71
616,17	43950,95
616,36	43838,82
616,55	44238,17
616,75	43945,83
616,94	43915,62
617,13	44014,43
617,33	43663,21
617,52	43699,05
617,71	43467,62
617,91	43908,96
618,10	43598,18
618,29	43373,42
618,49	43658,09
618,68	43579,75
618,87	42981,74
619,07	43540,84
619,26	43522,92
619,45	43663,72
619,65	43013,49
619,84	43251,05
620,03	43155,82
620,22	43578,22
620,42	42959,73
620,61	43188,08
620,80	42925,42
621,00	42994,54
621,19	42952,05
621,38	43198,32
621,58	42988,91
621,77	42951,02
621,96	43100,01
622,15	42807,67
622,35	42285,95
622,54	42431,35
622,73	42860,40
622,93	42524,54
623,12	42514,81
623,31	42436,98
623,50	42502,52
623,70	42645,88
623,89	42448,76
624,08	42040,70
624,28	42268,54
624,47	42227,58
624,66	42064,25
624,85	42228,09
625,05	41999,74
625,24	41732,48
625,43	42096,51
625,62	42062,21
625,82	41832,32
626,01	41473,42
626,20	41478,54
626,39	41374,60
626,59	41469,83
626,78	41393,03
626,97	41350,03
627,17	41174,41
627,36	41123,72
627,55	40757,65
627,74	40961,93
627,93	40971,15
628,13	40723,35
628,32	40661,91
628,51	40563,09
628,70	40520,60
628,90	40274,84
629,09	40263,07
629,28	40198,55
629,47	40261,53
629,67	39967,13
629,86	40202,14
630,05	40070,04
630,24	39919,01
630,44	39606,18
630,63	39732,13
630,82	39368,62
631,01	39497,13
631,20	38904,75
631,40	39040,43
631,59	38992,81
631,78	38612,40
631,97	38683,57
632,16	38498,23
632,36	38354,36
632,55	38223,80
632,74	38385,59
632,93	38141,88
633,13	37683,14
633,32	37807,55
633,51	37741,50
633,70	37584,83
633,89	37373,89
634,09	37179,34
634,28	37097,93
634,47	37275,08
634,66	36984,27
634,85	36964,81
635,04	36852,17
635,24	36509,65
635,43	36238,81
635,62	36089,31
635,81	36125,66
636,00	35943,39
636,20	35878,88
636,39	35727,84
636,58	35458,02
636,77	35201,00
636,96	35044,84
637,15	35037,67
637,35	34720,24
637,54	34663,41
637,73	34628,08
637,92	34568,69
638,11	34369,01
638,30	34268,15
638,50	33978,36
638,69	34024,44
638,88	33521,15
639,07	33505,28
639,26	33572,35
639,45	33081,35
639,64	33088,01
639,84	33091,08
640,03	32631,31
640,22	32647,69
640,41	32693,77
640,60	32151,06
640,79	32193,04
640,98	31854,62
641,18	31818,27
641,37	31880,73
641,56	31457,31
641,75	31559,20
641,94	31252,00
642,13	31116,84
642,32	30799,91
642,52	30844,97
642,71	30671,40
642,90	30542,38
643,09	30407,22
643,28	30427,18
643,47	30007,35
643,66	30164,02
643,85	29593,15
644,04	29759,55
644,24	29416,00
644,43	29496,89
644,62	29075,01
644,81	29018,18
645,00	28925,51
645,19	29193,79
645,38	28715,08
645,57	28680,27
645,76	28276,82
645,96	28071,51
646,15	28155,47
646,34	28174,93
646,53	27774,04
646,72	27844,18
646,91	27646,55
647,10	27358,30
647,29	27357,79
647,48	27443,29
647,67	26996,84
647,86	26858,09
648,05	26775,66
648,25	26591,85
648,44	26438,25
648,63	26433,64
648,82	26127,47
649,01	26035,83
649,20	26023,03
649,39	25858,17
649,58	25720,44
649,77	25477,76
649,96	25245,31
650,15	25387,13
650,34	24901,76
650,53	25137,79
650,72	24874,63
650,91	24686,22
651,11	24805,51
651,30	24490,63
651,49	24349,32
651,68	24276,11
651,87	24157,84
652,06	24127,63
652,25	23762,58
652,44	23818,90
652,63	23485,59
652,82	23658,65
653,01	23292,06
653,20	22966,95
653,39	23003,30
653,58	22791,84
653,77	22745,25
653,96	22495,91
654,15	22657,70
654,34	22322,35
654,53	22288,04
654,72	22074,03
654,91	22023,86
655,10	21822,13
655,29	21705,40
655,48	21609,65
655,67	21409,47
655,86	21298,88
656,05	21176,00
656,24	21022,40
656,43	20972,74
656,62	21054,65
656,81	20778,18
657,00	20611,27
657,19	20570,82
657,38	20431,56
657,57	20359,37
657,76	20061,39
657,95	20137,68
658,14	19896,53
658,33	19728,08
658,52	19700,44
658,71	19573,46
658,90	19308,25
659,09	19377,88
659,28	19108,57
659,47	19117,28
659,66	19004,64
659,85	18857,18
660,04	18750,18
660,23	18846,43
660,42	18560,74
660,61	18529,51
660,80	18295,02
660,99	18146,54
661,18	18224,87
661,37	18043,12
661,56	17962,73
661,75	17935,09
661,94	17867,50
662,13	17847,02
662,32	17380,60
662,51	17404,15
662,70	17391,86
662,89	17088,25
663,08	17050,36
663,27	17049,34
663,46	16667,39
663,65	16733,44
663,83	16627,46
664,02	16614,15
664,21	16485,12
664,40	16366,85
664,59	16251,66
664,78	16336,65
664,97	16248,58
665,16	15880,46
665,35	16067,34
665,54	15839,50
665,73	15893,26
665,92	15654,67
666,11	15462,68
666,30	15663,38
666,49	15435,03
666,67	15303,96
666,86	15253,78
667,05	15191,32
667,24	14983,96
667,43	14847,26
667,62	14883,10
667,81	14553,89
668,00	14734,62
668,19	14498,08
668,38	14559,01
668,57	14497,06
668,76	14355,75
668,94	14053,16
669,13	14061,87
669,32	14058,79
669,51	13821,23
669,70	13837,61
669,89	13776,17
670,08	13638,45
670,27	13602,10
670,46	13515,57
670,64	13339,96
670,83	13427,00
671,02	13269,81
671,21	13233,46
671,40	12990,78
671,59	13057,85
671,78	12784,44
671,97	12845,37
672,16	12701,50
672,34	12662,08
672,53	12711,74
672,72	12589,89
672,91	12606,78
673,10	12435,27
673,29	12354,88
673,48	12226,89
673,66	12061,00
673,85	12130,12
674,04	11946,83
674,23	11859,28
674,42	11784,01
674,61	11945,80
674,80	11675,98
674,98	11562,32
675,17	11573,58
675,36	11381,07
675,55	11442,51
675,74	11365,20
675,93	11258,71
676,12	11379,03
676,30	11241,81
676,49	11077,46
676,68	10966,87
676,87	10928,47
677,06	10854,23
677,25	10785,12
677,43	10812,25
677,62	10611,55
677,81	10465,63
678,00	10410,85
678,19	10549,09
678,37	10422,11
678,56	10299,75
678,75	10310,50
678,94	10140,52
679,13	10147,17
679,32	10130,79
679,50	9992,04
679,69	10094,95
679,88	9816,43
680,07	9834,35
680,26	9779,05
680,44	9773,93
680,63	9649,00
680,82	9518,96
681,01	9518,96
681,20	9504,62
681,38	9472,88
681,57	9371,51
681,76	9317,23
681,95	9161,59
682,14	9242,48
682,32	9013,11
682,51	9064,82
682,70	9059,19
682,89	8904,57
683,07	8897,91
683,26	8917,37
683,45	8779,64
683,64	8666,49
683,83	8695,16
684,01	8606,08
684,20	8557,95
684,39	8504,70
684,58	8458,62
684,76	8412,54
684,95	8292,23
685,14	8131,97
685,33	8186,76
685,52	8196,99
685,70	8088,96
685,89	8088,45
686,08	8166,28
686,27	7857,03
686,45	7922,06
686,64	7789,96
686,83	7882,12
687,02	7738,76
687,20	7824,26
687,39	7650,70
687,58	7699,34
687,76	7589,26
687,95	7585,68
688,14	7516,05
688,33	7483,79
688,51	7591,82
688,70	7335,31
688,89	7366,54
689,08	7241,11
689,26	7200,15
689,45	7154,07
689,64	7189,39
689,83	7108,50
690,01	6940,57
690,20	7074,71
690,39	7057,30
690,57	7016,34
690,76	6891,93
690,95	6861,72
691,14	6735,77
691,32	6709,66
691,51	6605,72
691,70	6658,97
691,88	6636,95
692,07	6661,02
692,26	6478,75
692,44	6544,80
692,63	6430,62
692,82	6388,64
693,01	6321,57
693,19	6286,24
693,38	6300,58
693,57	6113,70
693,75	6101,41
693,94	6145,95
694,13	6070,69
694,31	6051,24
694,50	5937,57
694,69	5968,29
694,87	5985,19
695,06	5873,06
695,25	5855,65
695,43	5900,20
695,62	5768,10
695,81	5732,78
695,99	5781,42
696,18	5683,63
696,37	5693,87
696,55	5635,50
696,74	5606,31
696,93	5716,39
697,11	5560,24
697,30	5390,25
697,49	5379,50
697,67	5452,20
697,86	5300,14
698,05	5302,19
698,23	5222,32
698,42	5289,39
698,61	5278,13
698,79	5215,66
698,98	5199,79
699,17	5170,61
699,35	5073,33
699,54	5147,06
699,72	5026,23
699,91	4944,31
700,10	4902,33
700,28	4949,43
700,47	4870,58
700,66	4720,06
700,84	4862,90
701,03	4880,82
701,21	4895,67
701,40	4794,29
701,59	4732,86
701,77	4735,42
701,96	4676,02
702,15	4695,99
702,33	4601,27
702,52	4539,32
702,70	4526,52
702,89	4507,58
703,08	4406,20
703,26	4503,48
703,45	4405,18
703,63	4498,36
703,82	4351,42
704,01	4394,94
704,19	4339,13
704,38	4281,79
704,56	4312,00
704,75	4273,60
704,94	4211,14
705,12	4188,61
705,31	4222,91
705,49	4081,09
705,68	3926,47
705,86	4090,31
706,05	4007,87
706,24	4062,15
706,42	3999,68
706,61	3852,23
706,79	3898,82
706,98	3827,14
707,17	3911,11
707,35	3797,45
707,54	3753,41
707,72	3748,29
707,91	3672,52
708,09	3697,10
708,28	3673,54
708,46	3675,08
708,65	3662,79
708,84	3656,14
709,02	3618,76
709,21	3638,73
709,39	3594,19
709,58	3560,39
709,76	3411,40
709,95	3469,77
710,13	3416,01
710,32	3420,62
710,50	3458,00
710,69	3408,33
710,88	3376,08
711,06	3302,35
711,25	3333,07
711,43	3320,27
711,62	3329,49
711,80	3275,73
711,99	3161,04
712,17	3171,79
712,36	3316,17
712,54	3146,19
712,73	3141,58
712,91	3235,79
713,10	3226,06
713,28	3134,93
713,47	3033,04
713,65	3089,36
713,84	3018,71
714,02	3069,91
714,21	3059,15
714,39	3025,36
714,58	2960,85
714,76	2892,76
714,95	2894,80
715,13	2868,69
715,32	2840,53
715,50	2793,94
715,69	2957,27
715,87	2715,61
716,06	2744,79
716,24	2685,91
716,43	2687,45
716,61	2705,37
716,80	2697,17
716,98	2534,87
717,17	2739,16
717,35	2704,85
717,54	2583,51
717,72	2479,58
717,91	2482,14
718,09	2502,62
718,28	2514,91
718,46	2495,96
718,65	2480,60
718,83	2381,79
719,01	2502,62
719,20	2402,27
719,38	2397,15
719,57	2417,12
719,75	2328,54
719,94	2335,20
720,12	2404,83
720,31	2394,59
720,49	2306,52
720,68	2310,62
720,86	2301,92
721,04	2249,18
721,23	2312,67
721,41	2130,40
721,60	2285,02
721,78	2238,43
721,97	2129,38
722,15	2171,87
722,34	2196,96
722,52	2181,60
722,70	2105,82
722,89	2073,57
723,07	2049,50
723,26	2102,24
723,44	1979,87
723,63	2028,51
723,81	1944,03
723,99	2042,34
724,18	2011,62
724,36	1933,28
724,55	2006,50
724,73	1918,43
724,91	1854,95
725,10	1993,19
725,28	1915,36
725,47	1974,75
725,65	1929,19
725,83	1937,89
726,02	1884,64
726,20	1896,42
726,39	1757,67
726,57	1798,63
726,75	1734,63
726,94	1799,14
727,12	1881,06
727,31	1788,90
727,49	1794,53
727,67	1780,20
727,86	1772,00
728,04	1701,86
728,23	1749,48
728,41	1675,75
728,59	1641,45
728,78	1758,18
728,96	1640,93
729,14	1669,09
729,33	1624,55
729,51	1611,24
729,69	1649,13
729,88	1606,12
730,06	1613,80
730,25	1651,69
730,43	1609,19
730,61	1682,92
730,80	1611,75
730,98	1548,26
731,16	1553,90
731,35	1530,34
731,53	1541,10
731,71	1519,08
731,90	1523,18
732,08	1482,22
732,26	1426,92
732,45	1412,59
732,63	1479,66
732,81	1395,18
733,00	1457,13
733,18	1442,79
733,36	1461,74
733,55	1481,71
733,73	1460,20
733,91	1348,08
734,10	1315,82
734,28	1366,00
734,46	1352,17
734,65	1440,23
734,83	1329,13
735,01	1303,02
735,20	1375,21
735,38	1250,28
735,56	1331,18
735,75	1345,52
735,93	1243,12
736,11	1399,79
736,30	1268,20
736,48	1234,41
736,66	1269,23
736,84	1320,43
737,03	1264,11
737,21	1257,96
737,39	1146,86
737,58	1328,11
737,76	1140,21
737,94	1158,13
738,12	1199,09
738,31	1174,00
738,49	1162,73
738,67	1096,18
738,86	1186,80
739,04	1169,90
739,22	1234,93
739,40	1136,62
739,59	1095,66
739,77	1054,70
739,95	1116,65
740,14	1054,70
740,32	1064,94
740,50	1137,65
740,68	1075,18
740,87	1072,11
741,05	1133,04
741,23	1074,16
741,41	1006,58
741,60	1060,85
741,78	1090,54
741,96	1089,52
742,14	988,14
742,33	935,92
742,51	1054,70
742,69	990,70
742,87	932,34
743,06	997,87
743,24	908,79
743,42	1036,27
743,60	924,15
743,79	913,39
743,97	959,47
744,15	892,40
744,33	915,44
744,52	846,32
744,70	918,00
744,88	946,67
745,06	928,24
745,24	921,07
745,43	950,77
745,61	870,90
745,79	872,43
745,97	944,63
746,16	897,01
746,34	903,67
746,52	944,11
746,70	795,12
746,88	879,60
747,07	853,49
747,25	759,80
747,43	843,76
747,61	856,05
747,79	874,99
747,98	827,38
748,16	846,84
748,34	850,42
748,52	712,18
748,70	690,17
748,89	832,50
749,07	699,38
749,25	812,02
749,43	765,43
749,61	815,09
749,79	897,01
749,98	814,58
750,16	708,60
750,34	773,62
750,52	783,86
750,70	815,60
750,88	774,64
751,07	839,67
751,25	690,68
751,43	726,52
751,61	668,66
751,79	737,27
751,97	783,86
752,16	693,24
752,34	725,49
752,52	696,31
752,70	776,18
752,88	663,03
753,06	792,05
753,25	649,21
753,43	687,09
753,61	685,05
753,79	566,26
753,97	681,97
754,15	689,14
754,33	706,04
754,52	790,52
754,70	624,12
754,88	620,53
755,06	707,06
755,24	698,87
755,42	694,26
755,60	674,81
755,78	701,43
755,97	688,12
756,15	665,59
756,33	641,53
756,51	684,53
756,69	628,73
756,87	650,23
757,05	588,28
757,23	585,21
757,41	647,16
757,60	627,19
757,78	647,16
757,96	596,98
758,14	602,10
758,32	582,14
758,50	671,73
758,68	686,58
758,86	708,60
759,04	619,51
759,22	623,09
759,41	606,20
759,59	621,56
759,77	707,57
759,95	560,12
760,13	602,10
760,31	612,34
760,49	621,56
760,67	594,42
760,85	489,46
761,03	611,32
761,21	537,59
761,39	551,42
761,57	630,26
761,76	609,78
761,94	626,17
762,12	631,29
762,30	579,06
762,48	639,99
762,66	604,66
762,84	557,05
763,02	562,17
763,20	592,89
763,38	577,02
763,56	543,74
763,74	513,02
763,92	551,93
764,10	596,47
764,28	560,12
764,46	555,51
764,64	637,94
764,82	587,77
765,00	505,85
765,19	496,63
765,37	547,32
765,55	507,38
765,73	463,86
765,91	561,14
766,09	475,13
766,27	552,95
766,45	477,18
766,63	485,88
766,81	544,76
766,99	498,68
767,17	452,60
767,35	496,63
767,53	476,15
767,71	552,95
767,89	494,58
768,07	549,88
768,25	520,70
768,43	461,30
768,61	508,41
768,79	475,13
768,97	496,63
769,15	475,64
769,33	498,68
769,51	461,30
769,69	429,05
769,87	501,24
770,05	481,78
770,23	494,07
770,41	479,22
770,59	457,21
770,77	425,98
770,95	488,44
771,13	446,46
771,31	444,92
771,49	440,31
771,67	441,85
771,85	520,70
772,03	492,54
772,21	428,03
772,38	452,60
772,56	449,53
772,74	475,64
772,92	393,72
773,10	472,06
773,28	452,60
773,46	344,06
773,64	436,73
773,82	385,53
774,00	415,23
774,18	461,30
774,36	390,65
774,54	382,46
774,72	431,10
774,90	316,41
775,08	347,13
775,26	500,73
775,44	377,85
775,62	388,09
775,80	386,55
775,97	406,01
776,15	430,07
776,33	485,37
776,51	336,38
776,69	415,74
776,87	417,79
777,05	428,03
777,23	444,41
777,41	280,57
777,59	292,86
777,77	329,21
777,95	396,28
778,13	309,24
778,30	378,87
778,48	443,90
778,66	450,55
778,84	314,88
779,02	367,61
779,20	340,99
779,38	420,35
779,56	371,71
779,74	310,78
779,92	292,86
780,09	355,83
780,27	359,93
780,45	273,40
780,63	375,29
780,81	352,76
780,99	355,32
781,17	377,85
781,35	312,83
781,52	366,07
781,70	365,56
781,88	371,71
782,06	412,67
782,24	337,91
782,42	365,05
782,60	368,63
782,78	312,83
782,95	387,07
783,13	320,51
783,31	267,26
783,49	331,26
783,67	316,92
783,85	359,93
784,03	272,38
784,20	274,94
784,38	275,45
784,56	301,05
784,74	275,45
784,92	272,89
785,10	289,28
785,28	333,31
785,45	390,14
785,63	336,89
785,81	274,94
785,99	312,32
786,17	366,59
786,35	297,47
786,52	305,66
786,70	274,94
786,88	259,58
787,06	300,03
787,24	339,45
787,41	331,77
787,59	302,08
787,77	257,02
787,95	206,33
788,13	283,13
788,31	204,80
788,48	280,06
788,66	229,37
788,84	259,07
789,02	276,99
789,20	267,77
789,37	271,87
789,55	314,36
789,73	292,86
789,91	307,20
790,09	310,27
790,26	263,16
790,44	269,82
790,62	208,89
790,80	331,26
790,98	345,59
791,15	328,19
791,33	354,30
791,51	270,33
791,69	229,88
791,86	334,33
792,04	251,90
792,22	251,39
792,40	249,34
792,58	217,08
792,75	263,16
792,93	318,46
793,11	212,48
793,29	220,67
793,46	233,98
793,64	301,56
793,82	243,71
794,00	227,32
794,17	314,88
794,35	180,22
794,53	228,86
794,71	234,49
794,88	229,37
795,06	189,95
795,24	328,70
795,42	297,47
795,59	145,92
795,77	248,83
795,95	206,33
796,13	225,28
796,30	212,99
796,48	252,92
796,66	272,38
796,83	257,02
797,01	282,62
797,19	148,48
797,37	290,30
797,54	201,21
797,72	222,20
797,90	273,40
798,08	121,34
798,25	196,09
798,43	297,47
798,61	246,78
798,78	215,55
798,96	232,44
799,14	172,03
799,31	250,36
799,49	227,32
799,67	193,53
799,85	303,10
800,02	270,84
800,20	122,37
800,38	148,99
800,55	254,46
800,73	155,65
800,91	220,67
801,08	252,92
801,26	219,13
801,44	235,52
801,61	263,16
801,79	207,36
801,97	179,20
802,15	184,32
802,32	162,81
802,50	210,94
802,68	193,02
802,85	263,16
803,03	244,22
803,21	210,43
803,38	275,96
803,56	195,58
803,74	131,07
803,91	203,26
804,09	209,92
804,26	241,15
804,44	269,82
804,62	192,51
804,79	264,70
804,97	185,34
805,15	200,19
805,32	141,31
805,50	232,96
805,68	179,71
805,85	140,80
806,03	146,94
806,21	234,49
806,38	81,92
806,56	212,48
806,73	224,25
806,91	253,95
807,09	200,70
807,26	193,53
807,44	256,51
807,62	211,45
807,79	218,62
807,97	192,51
808,14	200,70
808,32	246,78
808,50	192,51
808,67	152,57
808,85	199,16
809,02	303,61
809,20	160,25
809,38	183,81
809,55	109,57
809,73	178,17
809,90	199,68
810,08	260,60
810,26	231,42
810,43	240,12
810,61	176,13
810,78	179,20
810,96	150,01
811,14	143,36
811,31	113,15
811,49	78,33
811,66	169,47
811,84	138,24
812,02	172,03
812,19	211,45
812,37	178,69
812,54	265,21
812,72	252,41
812,89	237,56
813,07	212,99
813,25	241,66
813,42	216,57
813,60	236,54
813,77	300,54
813,95	197,63
814,12	98,81
814,30	193,02
814,47	167,42
814,65	199,16
814,83	155,13
815,00	221,18
815,18	230,91
815,35	191,49
815,53	311,29
815,70	187,90
815,88	199,16
816,05	197,63
816,23	135,17
816,40	179,20
816,58	212,48
816,75	127,49
816,93	221,18
817,10	207,87
817,28	195,58
817,46	123,39
817,63	162,30
817,81	150,53
817,98	105,47
818,16	176,64
818,33	122,37
818,51	126,97
818,68	175,10
818,86	278,52
819,03	245,24
819,21	181,25
819,38	180,73
819,56	157,69
819,73	139,26
819,91	161,28
820,08	142,85
820,26	155,65
820,43	270,33
820,61	160,25
820,78	118,78
820,96	115,20
821,13	183,81
821,31	207,36
821,48	94,72
821,66	209,40
821,83	203,77
822,00	96,77
822,18	110,08
822,35	164,35
822,53	225,79
822,70	158,21
822,88	221,69
823,05	164,86
823,23	150,53
823,40	115,20
823,58	168,45
823,75	82,43
823,93	138,24
824,10	102,91
824,28	104,45
824,45	129,53
824,62	82,94
824,80	148,99
824,97	194,56
825,15	188,93
825,32	146,94
825,50	200,70
825,67	168,45
825,85	199,68
826,02	99,84
826,19	191,49
826,37	210,94
826,54	137,21
826,72	137,21
826,89	103,42
827,07	122,88
827,24	174,08
827,41	176,13
827,59	173,05
827,76	111,61
827,94	119,81
828,11	238,59
828,28	137,73
828,46	187,90
828,63	187,39
828,81	123,39
828,98	148,99
829,15	237,05
829,33	128,51
829,50	118,27
829,68	115,71
829,85	158,21
830,02	218,62
830,20	177,66
830,37	107,01
830,55	205,31
830,72	174,08
830,89	112,13
831,07	134,14
831,24	193,02
831,42	170,49
831,59	113,66
831,76	157,69
831,94	149,50
832,11	179,71
832,28	224,76
832,46	132,61
832,63	157,18
832,81	161,28
832,98	156,16
833,15	136,19
833,33	124,93
833,50	148,99
833,67	182,27
833,85	157,69
834,02	155,13
834,19	99,33
834,37	166,40
834,54	167,42
834,71	116,73
834,89	194,05
835,06	105,47
835,23	95,23
835,41	152,06
835,58	201,72
835,75	107,01
835,93	132,61
836,10	148,48
836,27	150,53
836,45	283,64
836,62	141,31
836,79	190,46
836,97	161,28
837,14	264,70
837,31	143,87
837,49	174,59
837,66	157,69
837,83	191,49
838,01	119,29
838,18	196,09
838,35	104,45
838,53	200,19
838,70	86,01
838,87	156,16
839,04	101,89
839,22	265,72
839,39	62,46
839,56	154,62
839,74	148,48
839,91	93,69
840,08	152,57
840,26	164,86
840,43	135,17
840,60	205,31
840,77	163,33
840,95	220,16
841,12	116,22
841,29	156,16
841,46	167,93
841,64	177,15
841,81	169,47
841,98	80,89
842,16	145,41
842,33	162,30
842,50	174,59
842,67	99,33
842,85	129,02
843,02	157,69
843,19	119,81
843,36	196,61
843,54	157,18
843,71	171,01
843,88	121,85
844,05	70,65
844,23	156,67
844,40	135,68
844,57	139,26
844,74	125,44
844,92	129,02
845,09	103,42
845,26	105,47
845,43	29,18
845,61	132,09
845,78	217,08
845,95	100,35
846,12	242,17
846,29	204,80
846,47	209,40
846,64	120,83
846,81	31,74
846,98	20,99
847,16	93,18
847,33	169,98
847,50	131,58
847,67	81,92
847,84	148,48
848,02	100,86
848,19	94,21
848,36	125,44
848,53	128,51
848,70	152,06
848,88	123,90
849,05	200,19
849,22	144,38
849,39	91,13
849,56	26,62
849,74	111,10
849,91	143,87
850,08	132,09
850,25	145,41
850,42	183,81
850,60	188,93
850,77	168,45
850,94	185,85
851,11	182,78
851,28	159,74
851,45	192,51
851,63	152,57
851,80	165,37
851,97	118,27
852,14	208,89
852,31	153,60
852,48	110,59
852,66	132,09
852,83	151,55
853,00	147,45
853,17	150,01
853,34	168,45
853,51	155,65
853,68	130,56
853,86	130,56
854,03	135,17
854,20	89,60
854,37	102,40
854,54	215,04
854,71	138,75
854,88	120,32
855,06	151,55
855,23	193,53
855,40	131,58
855,57	40,96
855,74	128,51
855,91	124,93
856,08	152,06
856,25	168,96
856,43	103,93
856,60	118,78
856,77	183,81
856,94	114,69
857,11	139,26
857,28	159,74
857,45	194,56
857,62	80,89
857,79	154,11
857,97	155,65
858,14	125,44
858,31	201,72
858,48	146,43
858,65	112,13
858,82	76,29
858,99	95,74
859,16	61,95
859,33	54,78
859,50	128,51
859,67	56,83
859,85	121,34
860,02	7,68
860,19	140,29
860,36	112,64
860,53	168,96
860,70	161,28
860,87	176,64
861,04	227,32
861,21	143,87
861,38	220,67
861,55	133,12
861,72	92,16
861,89	115,71
862,06	108,54
862,23	163,33
862,41	116,22
862,58	161,79
862,75	114,69
862,92	171,01
863,09	87,04
863,26	78,33
863,43	142,85
863,60	175,61
863,77	162,81
863,94	114,17
864,11	197,63
864,28	107,01
864,45	38,91
864,62	196,09
864,79	203,77
864,96	136,70
865,13	177,66
865,30	102,91
865,47	224,76
865,64	34,30
865,81	132,09
865,98	215,55
866,15	108,03
866,32	190,46
866,49	172,03
866,66	163,33
866,83	145,92
867,00	107,52
867,17	200,19
867,34	-6,14
867,51	214,52
867,68	66,56
867,85	184,32
868,02	175,61
868,19	107,01
868,36	133,63
868,53	196,61
868,70	69,63
868,87	97,79
869,04	233,47
869,21	147,45
869,38	142,85
869,55	103,93
869,72	197,12
869,89	93,69
870,06	155,65
870,23	113,66
870,40	117,76
870,57	136,19
870,74	54,27
870,91	150,01
871,08	53,25
871,25	193,53
871,42	151,04
871,59	150,53
871,76	84,99
871,93	67,07
872,10	95,74
872,27	240,64
872,44	97,79
872,60	128,51
872,77	186,37
872,94	116,22
873,11	133,63
873,28	171,52
873,45	136,19
873,62	199,68
873,79	102,91
873,96	63,49
874,13	172,54
874,30	36,35
874,47	185,85
874,64	151,04
874,81	81,92
874,97	152,57
875,14	149,50
875,31	72,70
875,48	135,17
875,65	130,56
875,82	130,56
875,99	150,53
876,16	205,82
876,33	186,88
876,50	113,66
876,67	161,28
876,83	110,59
877,00	113,66
877,17	251,39
877,34	69,63
877,51	130,56
877,68	108,03
877,85	-10,24
878,02	97,79
878,19	122,88
878,35	114,17
878,52	144,89
878,69	92,16
878,86	105,47
879,03	74,24
879,20	169,47
879,37	151,04
879,54	165,37
879,70	107,52
879,87	114,17
880,04	173,57
880,21	121,85
880,38	154,11
880,55	125,95
880,72	121,34
880,89	47,10
881,05	170,49
881,22	142,33
881,39	127,49
881,56	156,16
881,73	71,68
881,90	174,59
882,06	123,39
882,23	81,92
882,40	129,53
882,57	125,95
882,74	133,12
882,91	174,08
883,07	74,24
883,24	197,12
883,41	133,63
883,58	144,38
883,75	112,64
883,92	70,65
884,08	108,54
884,25	118,78
884,42	94,72
884,59	159,23
884,76	185,85
884,92	113,66
885,09	138,75
885,26	150,01
885,43	152,06
885,60	108,54
885,76	160,77
885,93	71,17
886,10	144,89
886,27	99,33
886,44	162,81
886,60	235,00
886,77	117,25
886,94	93,18
887,11	96,77
887,28	115,20
887,44	194,05
887,61	124,41
887,78	142,33
887,95	103,42
888,12	160,25
888,28	116,73
888,45	160,25
888,62	120,32
888,79	87,55
888,95	47,62
889,12	118,27
889,29	178,17
889,46	112,13
889,62	195,58
889,79	158,21
889,96	115,20
890,13	134,14
890,29	132,09
890,46	142,85
890,63	90,62
890,80	140,29
890,96	151,04
891,13	131,58
891,30	121,34
891,47	79,36
891,63	249,85
891,80	159,23
891,97	137,21
892,14	123,90
892,30	102,40
892,47	200,19
892,64	86,53
892,80	144,89
892,97	100,86
893,14	102,40
893,31	127,49
893,47	80,89
893,64	167,93
893,81	149,50
893,97	173,05
894,14	155,13
>>>>>End Processed Spectral Data<<<<<
