SpectraSuite Datei
++++++++++++++++++++++++++++++++++++
Datum: Mon Dec 11 15:22:17 CET 2017
Benutzer: Praktikum-Pc1
Dark-Spektrum vorhanden: Ja
Referenz-Spektrum vorhanden: Nein
Zahl der probierten Teilspektren: 1
Spektrometer: USB4H10187
Integrationszeit (usec): 150000 (USB4H10187)
Spektren Durchschnitt berechnet: 4 (USB4H10187)
Boxcar Glättung: 0 (USB4H10187)
Dunkelstromkorrektur: Nein (USB4H10187)
Puls/Lampe aktiviert: Nein (USB4H10187)
Correct for Detector Non-linearity: Nein (USB4H10187)
Streulichtkorrektur: Nein (USB4H10187)
Anzahl Pixel in verarbeitetem Spektrum: 3648
>>>>>Begin Processed Spectral Data<<<<<
176,80	-39,94
177,02	-39,94
177,24	-39,94
177,46	-12,80
177,68	23,55
177,91	136,70
178,13	125,44
178,35	125,95
178,57	90,11
178,79	121,34
179,02	196,09
179,24	97,28
179,46	136,19
179,68	94,21
179,90	44,54
180,12	168,45
180,35	155,13
180,57	91,65
180,79	154,11
181,01	134,65
181,23	101,89
181,46	122,37
181,68	183,81
181,90	127,49
182,12	202,75
182,34	188,93
182,56	164,35
182,79	98,81
183,01	135,17
183,23	158,21
183,45	170,49
183,67	52,74
183,89	136,70
184,12	174,59
184,34	154,62
184,56	201,72
184,78	178,17
185,00	186,88
185,22	65,02
185,45	105,98
185,67	176,13
185,89	183,29
186,11	123,90
186,33	146,43
186,55	159,74
186,77	135,68
187,00	186,37
187,22	162,30
187,44	121,34
187,66	74,24
187,88	118,27
188,10	219,64
188,32	89,60
188,55	197,12
188,77	195,58
188,99	116,73
189,21	133,63
189,43	144,89
189,65	81,92
189,87	155,65
190,10	247,29
190,32	187,90
190,54	149,50
190,76	198,65
190,98	107,01
191,20	249,34
191,42	142,85
191,64	110,59
191,87	130,05
192,09	172,54
192,31	120,32
192,53	153,60
192,75	124,93
192,97	96,77
193,19	139,77
193,41	99,84
193,64	197,63
193,86	140,29
194,08	179,71
194,30	60,93
194,52	156,67
194,74	198,65
194,96	45,06
195,18	142,33
195,40	79,36
195,63	129,53
195,85	81,92
196,07	75,26
196,29	133,63
196,51	169,98
196,73	158,21
196,95	177,15
197,17	92,16
197,39	155,13
197,61	185,85
197,84	132,61
198,06	80,38
198,28	115,71
198,50	78,85
198,72	166,40
198,94	204,80
199,16	174,08
199,38	219,13
199,60	69,12
199,82	123,90
200,04	115,71
200,26	140,29
200,49	89,60
200,71	60,93
200,93	190,46
201,15	100,35
201,37	56,83
201,59	122,37
201,81	138,24
202,03	204,28
202,25	84,48
202,47	115,20
202,69	116,73
202,91	156,16
203,13	73,73
203,35	159,23
203,58	90,11
203,80	190,97
204,02	79,36
204,24	4,10
204,46	142,85
204,68	156,67
204,90	96,77
205,12	173,57
205,34	127,49
205,56	222,20
205,78	182,78
206,00	121,34
206,22	128,00
206,44	159,74
206,66	76,80
206,88	201,21
207,10	81,92
207,32	190,97
207,54	150,53
207,76	160,77
207,99	105,47
208,21	162,30
208,43	156,16
208,65	107,01
208,87	170,49
209,09	132,61
209,31	115,71
209,53	36,35
209,75	193,02
209,97	158,21
210,19	98,81
210,41	130,56
210,63	139,77
210,85	82,94
211,07	179,20
211,29	119,29
211,51	177,66
211,73	167,42
211,95	165,37
212,17	130,05
212,39	143,36
212,61	173,05
212,83	79,87
213,05	183,29
213,27	201,72
213,49	161,28
213,71	128,51
213,93	178,69
214,15	222,20
214,37	178,69
214,59	167,93
214,81	126,97
215,03	78,85
215,25	133,12
215,47	187,39
215,69	146,94
215,91	148,48
216,13	135,68
216,35	190,97
216,57	113,66
216,79	155,13
217,01	186,37
217,23	135,17
217,45	159,74
217,67	197,63
217,89	233,47
218,11	148,48
218,33	127,49
218,55	106,49
218,77	159,23
218,99	93,18
219,21	120,83
219,43	131,07
219,65	225,28
219,87	233,98
220,09	205,82
220,31	165,89
220,53	203,77
220,75	114,17
220,97	82,94
221,19	43,01
221,41	78,33
221,63	126,97
221,85	166,40
222,06	153,60
222,28	175,10
222,50	150,01
222,72	163,84
222,94	109,57
223,16	157,18
223,38	197,12
223,60	62,46
223,82	151,04
224,04	223,74
224,26	126,46
224,48	167,93
224,70	194,05
224,92	100,86
225,14	147,45
225,36	203,26
225,58	119,29
225,80	146,43
226,02	183,81
226,24	110,08
226,45	122,88
226,67	87,04
226,89	55,30
227,11	121,85
227,33	119,29
227,55	56,83
227,77	131,58
227,99	111,10
228,21	125,95
228,43	163,84
228,65	152,06
228,87	166,40
229,09	66,05
229,31	110,08
229,52	130,56
229,74	57,34
229,96	169,98
230,18	154,62
230,40	153,60
230,62	186,37
230,84	208,89
231,06	46,59
231,28	128,51
231,50	99,84
231,72	93,18
231,94	128,00
232,15	141,31
232,37	103,42
232,59	73,73
232,81	208,38
233,03	65,02
233,25	177,66
233,47	80,89
233,69	123,39
233,91	118,78
234,13	101,89
234,34	150,01
234,56	124,93
234,78	190,46
235,00	45,06
235,22	162,81
235,44	120,32
235,66	94,72
235,88	109,57
236,10	193,53
236,31	121,85
236,53	157,18
236,75	183,81
236,97	97,79
237,19	180,73
237,41	115,20
237,63	209,40
237,85	147,97
238,07	166,91
238,28	78,85
238,50	150,53
238,72	141,31
238,94	188,93
239,16	90,62
239,38	113,15
239,60	188,93
239,81	108,54
240,03	133,12
240,25	94,21
240,47	171,52
240,69	162,81
240,91	187,39
241,13	268,80
241,34	140,80
241,56	143,36
241,78	153,60
242,00	95,74
242,22	114,17
242,44	187,90
242,66	88,57
242,87	82,94
243,09	169,98
243,31	79,87
243,53	65,54
243,75	126,46
243,97	143,36
244,19	206,33
244,40	171,01
244,62	135,68
244,84	248,83
245,06	200,19
245,28	110,08
245,50	171,52
245,71	171,01
245,93	110,08
246,15	179,71
246,37	146,94
246,59	242,68
246,81	120,32
247,02	78,33
247,24	177,15
247,46	111,10
247,68	158,72
247,90	168,96
248,11	139,26
248,33	100,86
248,55	162,81
248,77	82,43
248,99	166,91
249,21	82,94
249,42	166,40
249,64	217,60
249,86	136,19
250,08	150,01
250,30	158,21
250,51	161,79
250,73	53,25
250,95	135,17
251,17	177,15
251,39	160,77
251,60	224,25
251,82	246,78
252,04	162,81
252,26	121,34
252,48	154,11
252,69	246,78
252,91	216,57
253,13	169,98
253,35	210,94
253,57	148,48
253,78	144,89
254,00	200,19
254,22	149,50
254,44	119,81
254,65	131,07
254,87	136,19
255,09	150,53
255,31	158,21
255,53	124,41
255,74	154,11
255,96	171,52
256,18	139,26
256,40	151,55
256,61	102,40
256,83	221,69
257,05	161,79
257,27	189,44
257,48	120,83
257,70	156,16
257,92	185,34
258,14	151,55
258,36	133,12
258,57	222,20
258,79	150,01
259,01	152,57
259,23	142,33
259,44	105,98
259,66	195,58
259,88	238,59
260,10	129,53
260,31	156,16
260,53	172,54
260,75	64,00
260,97	175,61
261,18	120,32
261,40	238,59
261,62	118,78
261,84	179,20
262,05	121,85
262,27	199,16
262,49	119,81
262,71	179,20
262,92	197,12
263,14	80,38
263,36	150,53
263,57	235,52
263,79	177,66
264,01	169,47
264,23	120,83
264,44	159,23
264,66	142,85
264,88	207,87
265,10	118,78
265,31	210,94
265,53	126,46
265,75	195,58
265,96	156,67
266,18	202,75
266,40	188,41
266,62	220,16
266,83	230,91
267,05	77,82
267,27	157,69
267,48	246,78
267,70	84,99
267,92	117,25
268,14	169,98
268,35	167,42
268,57	191,49
268,79	237,56
269,00	190,97
269,22	163,84
269,44	156,16
269,65	123,39
269,87	171,01
270,09	193,02
270,31	152,06
270,52	179,71
270,74	173,57
270,96	97,79
271,17	224,76
271,39	115,71
271,61	193,53
271,82	172,03
272,04	176,13
272,26	117,25
272,47	171,52
272,69	130,05
272,91	132,09
273,12	174,08
273,34	168,96
273,56	146,94
273,77	109,05
273,99	171,01
274,21	183,29
274,42	131,58
274,64	224,25
274,86	68,61
275,08	171,01
275,29	90,62
275,51	188,93
275,72	119,81
275,94	200,19
276,16	151,55
276,37	157,18
276,59	91,13
276,81	71,68
277,02	163,33
277,24	178,69
277,46	141,31
277,67	120,83
277,89	173,57
278,11	185,85
278,32	178,69
278,54	99,84
278,76	307,20
278,97	239,61
279,19	189,95
279,41	134,65
279,62	156,16
279,84	228,35
280,05	102,40
280,27	142,33
280,49	134,14
280,70	201,21
280,92	146,43
281,14	165,89
281,35	58,37
281,57	173,05
281,79	115,20
282,00	199,68
282,22	267,77
282,43	185,34
282,65	110,59
282,87	87,04
283,08	147,45
283,30	234,49
283,52	229,88
283,73	124,93
283,95	158,21
284,16	119,29
284,38	204,28
284,60	194,05
284,81	167,42
285,03	134,65
285,24	137,73
285,46	176,13
285,68	120,83
285,89	180,73
286,11	150,53
286,32	207,87
286,54	154,62
286,76	148,48
286,97	219,13
287,19	145,92
287,40	166,40
287,62	208,38
287,84	149,50
288,05	141,82
288,27	195,58
288,48	139,26
288,70	148,99
288,92	136,19
289,13	142,33
289,35	140,29
289,56	141,31
289,78	166,40
289,99	199,16
290,21	165,89
290,43	157,18
290,64	93,69
290,86	167,93
291,07	166,91
291,29	197,63
291,51	157,18
291,72	222,20
291,94	202,75
292,15	255,48
292,37	171,01
292,58	135,68
292,80	216,06
293,01	140,80
293,23	145,92
293,45	237,05
293,66	146,94
293,88	251,90
294,09	76,80
294,31	154,11
294,52	171,52
294,74	169,47
294,96	146,94
295,17	169,47
295,39	206,33
295,60	172,54
295,82	140,29
296,03	124,41
296,25	131,58
296,46	197,63
296,68	174,08
296,89	182,78
297,11	141,31
297,32	195,07
297,54	257,02
297,76	166,91
297,97	137,21
298,19	220,67
298,40	216,06
298,62	188,93
298,83	203,77
299,05	198,14
299,26	165,89
299,48	153,09
299,69	238,08
299,91	104,45
300,12	236,03
300,34	194,56
300,55	189,95
300,77	190,97
300,98	71,17
301,20	132,09
301,41	103,42
301,63	129,53
301,84	143,36
302,06	229,88
302,28	129,53
302,49	127,49
302,71	254,46
302,92	44,03
303,14	142,33
303,35	210,94
303,57	133,63
303,78	178,17
304,00	206,84
304,21	135,68
304,43	152,06
304,64	164,86
304,86	109,57
305,07	185,85
305,29	189,44
305,50	135,17
305,71	221,18
305,93	176,64
306,14	229,37
306,36	187,90
306,57	237,05
306,79	208,89
307,00	108,54
307,22	163,84
307,43	112,13
307,65	215,04
307,86	172,03
308,08	226,81
308,29	226,81
308,51	167,42
308,72	195,07
308,94	165,37
309,15	177,15
309,37	140,80
309,58	113,15
309,80	139,77
310,01	173,57
310,22	184,32
310,44	186,88
310,65	179,71
310,87	180,73
311,08	251,39
311,30	117,25
311,51	238,08
311,73	191,49
311,94	144,89
312,16	80,38
312,37	180,22
312,58	224,76
312,80	108,54
313,01	175,10
313,23	175,10
313,44	187,90
313,66	118,78
313,87	244,22
314,09	112,64
314,30	162,81
314,51	193,02
314,73	140,29
314,94	196,09
315,16	178,69
315,37	240,64
315,59	122,88
315,80	138,24
316,01	188,41
316,23	158,72
316,44	223,23
316,66	261,12
316,87	238,59
317,09	131,58
317,30	170,49
317,51	172,54
317,73	163,84
317,94	164,86
318,16	246,78
318,37	130,56
318,58	30,21
318,80	223,74
319,01	152,57
319,23	231,93
319,44	110,08
319,66	160,77
319,87	178,69
320,08	187,39
320,30	160,77
320,51	163,84
320,73	145,41
320,94	204,80
321,15	166,40
321,37	192,51
321,58	185,34
321,80	251,90
322,01	143,87
322,22	129,53
322,44	128,00
322,65	190,46
322,86	146,94
323,08	205,31
323,29	177,15
323,51	166,91
323,72	152,57
323,93	208,89
324,15	223,74
324,36	173,57
324,58	194,05
324,79	219,13
325,00	187,90
325,22	162,30
325,43	185,85
325,64	170,49
325,86	193,53
326,07	137,21
326,28	234,49
326,50	215,04
326,71	154,62
326,93	117,76
327,14	211,96
327,35	94,72
327,57	201,21
327,78	171,01
327,99	224,25
328,21	133,63
328,42	242,17
328,63	203,77
328,85	215,04
329,06	124,41
329,27	132,09
329,49	164,86
329,70	111,10
329,91	224,76
330,13	132,09
330,34	199,16
330,56	58,37
330,77	150,53
330,98	200,70
331,20	184,83
331,41	238,08
331,62	180,22
331,84	180,22
332,05	185,34
332,26	250,36
332,48	237,05
332,69	196,61
332,90	167,93
333,11	131,07
333,33	157,18
333,54	226,30
333,75	151,04
333,97	80,38
334,18	194,56
334,39	215,55
334,61	194,56
334,82	279,04
335,03	187,39
335,25	228,35
335,46	186,37
335,67	193,53
335,89	158,72
336,10	167,93
336,31	176,13
336,53	124,41
336,74	220,16
336,95	212,48
337,16	172,54
337,38	149,50
337,59	315,90
337,80	121,34
338,02	182,78
338,23	241,15
338,44	185,85
338,65	171,01
338,87	205,82
339,08	207,87
339,29	216,06
339,51	178,69
339,72	132,09
339,93	184,32
340,14	196,09
340,36	221,69
340,57	208,89
340,78	140,29
341,00	106,49
341,21	200,19
341,42	294,40
341,63	105,47
341,85	107,01
342,06	192,51
342,27	205,31
342,49	204,80
342,70	249,85
342,91	237,05
343,12	216,06
343,34	222,20
343,55	143,36
343,76	220,16
343,97	216,57
344,19	204,80
344,40	191,49
344,61	203,77
344,82	180,73
345,04	170,49
345,25	243,20
345,46	186,88
345,67	190,46
345,89	157,69
346,10	211,45
346,31	134,65
346,52	142,85
346,74	123,39
346,95	242,17
347,16	138,24
347,37	154,11
347,59	179,20
347,80	177,15
348,01	226,30
348,22	232,44
348,43	164,86
348,65	157,69
348,86	167,93
349,07	270,84
349,28	134,65
349,50	177,66
349,71	200,70
349,92	119,81
350,13	179,20
350,34	136,70
350,56	113,15
350,77	227,32
350,98	161,79
351,19	197,12
351,41	221,18
351,62	280,57
351,83	84,99
352,04	222,72
352,25	182,27
352,47	224,76
352,68	278,52
352,89	68,09
353,10	204,80
353,31	217,08
353,53	204,80
353,74	156,67
353,95	190,46
354,16	227,32
354,37	242,68
354,59	182,78
354,80	220,16
355,01	134,65
355,22	131,58
355,43	192,51
355,65	102,91
355,86	257,02
356,07	214,52
356,28	206,33
356,49	112,13
356,70	192,00
356,92	164,86
357,13	122,37
357,34	151,04
357,55	246,27
357,76	220,67
357,98	82,94
358,19	240,64
358,40	158,21
358,61	177,15
358,82	182,27
359,03	183,29
359,25	273,40
359,46	248,32
359,67	232,96
359,88	137,73
360,09	152,06
360,30	154,62
360,51	136,19
360,73	254,46
360,94	173,57
361,15	148,48
361,36	158,72
361,57	186,37
361,78	124,41
362,00	126,46
362,21	182,27
362,42	257,02
362,63	122,88
362,84	150,53
363,05	85,50
363,26	186,37
363,48	184,83
363,69	217,60
363,90	154,62
364,11	131,58
364,32	124,93
364,53	137,21
364,74	172,54
364,95	149,50
365,17	125,95
365,38	244,22
365,59	237,05
365,80	222,20
366,01	107,01
366,22	186,37
366,43	91,13
366,64	214,01
366,86	175,61
367,07	137,21
367,28	230,40
367,49	148,99
367,70	271,87
367,91	138,75
368,12	89,09
368,33	137,21
368,54	236,03
368,76	164,35
368,97	163,84
369,18	105,98
369,39	160,77
369,60	131,07
369,81	212,99
370,02	177,15
370,23	155,13
370,44	130,05
370,65	132,09
370,87	117,76
371,08	226,81
371,29	176,13
371,50	207,87
371,71	227,84
371,92	229,88
372,13	161,28
372,34	158,21
372,55	123,39
372,76	196,61
372,97	176,64
373,18	244,22
373,40	154,11
373,61	178,17
373,82	166,91
374,03	193,53
374,24	215,04
374,45	133,12
374,66	264,19
374,87	235,00
375,08	114,69
375,29	155,13
375,50	172,03
375,71	122,37
375,92	224,76
376,13	119,81
376,34	160,25
376,56	192,00
376,77	238,08
376,98	158,72
377,19	199,16
377,40	169,47
377,61	300,03
377,82	162,81
378,03	196,09
378,24	167,93
378,45	197,12
378,66	150,01
378,87	173,05
379,08	208,38
379,29	194,05
379,50	227,84
379,71	85,50
379,92	160,77
380,13	138,75
380,34	160,77
380,55	237,05
380,76	181,76
380,97	264,19
381,18	208,38
381,39	197,63
381,60	239,61
381,81	116,73
382,02	182,78
382,24	163,33
382,45	134,65
382,66	152,57
382,87	225,79
383,08	207,87
383,29	137,73
383,50	246,27
383,71	118,27
383,92	131,07
384,13	130,56
384,34	266,24
384,55	139,77
384,76	175,10
384,97	151,55
385,18	123,39
385,39	142,85
385,60	115,20
385,81	197,63
386,02	210,94
386,23	229,88
386,44	136,70
386,65	154,62
386,86	160,77
387,07	196,09
387,28	197,63
387,49	158,21
387,70	141,82
387,91	222,72
388,12	189,44
388,32	143,87
388,53	158,72
388,74	152,57
388,95	135,17
389,16	139,26
389,37	137,21
389,58	178,17
389,79	222,20
390,00	184,83
390,21	188,41
390,42	149,50
390,63	204,80
390,84	151,04
391,05	248,83
391,26	282,11
391,47	93,69
391,68	170,49
391,89	223,74
392,10	207,36
392,31	235,00
392,52	200,19
392,73	95,74
392,94	244,73
393,15	158,21
393,36	204,28
393,57	162,30
393,78	212,48
393,98	258,56
394,19	140,29
394,40	261,12
394,61	170,49
394,82	239,61
395,03	183,81
395,24	237,56
395,45	143,36
395,66	196,09
395,87	97,79
396,08	149,50
396,29	250,36
396,50	205,82
396,71	188,93
396,92	159,74
397,12	215,55
397,33	179,20
397,54	178,17
397,75	193,53
397,96	186,37
398,17	208,38
398,38	178,69
398,59	277,50
398,80	61,44
399,01	217,60
399,22	225,28
399,43	158,21
399,63	244,22
399,84	211,96
400,05	228,86
400,26	183,81
400,47	213,50
400,68	257,02
400,89	194,05
401,10	230,91
401,31	192,51
401,52	158,72
401,72	257,02
401,93	161,79
402,14	251,39
402,35	286,20
402,56	278,01
402,77	213,50
402,98	264,70
403,19	253,95
403,40	279,04
403,60	298,49
403,81	332,79
404,02	235,52
404,23	326,14
404,44	281,08
404,65	288,76
404,86	334,33
405,07	257,02
405,27	273,92
405,48	264,19
405,69	226,30
405,90	351,74
406,11	350,71
406,32	351,23
406,53	350,20
406,74	338,94
406,94	345,08
407,15	373,24
407,36	292,35
407,57	354,81
407,78	342,01
407,99	382,97
408,20	354,30
408,40	429,56
408,61	431,10
408,82	527,86
409,03	414,71
409,24	450,04
409,45	415,74
409,65	471,03
409,86	506,36
410,07	453,11
410,28	515,58
410,49	572,41
410,70	625,65
410,90	608,25
411,11	564,22
411,32	575,48
411,53	620,02
411,74	650,74
411,95	715,77
412,15	716,79
412,36	598,01
412,57	715,77
412,78	715,25
412,99	732,66
413,20	704,50
413,40	721,40
413,61	828,92
413,82	865,78
414,03	867,31
414,24	902,13
414,44	904,18
414,65	911,86
414,86	860,15
415,07	1028,08
415,28	1055,22
415,48	1075,70
415,69	1032,18
415,90	1120,75
416,11	1137,13
416,32	1197,04
416,53	1133,55
416,73	1308,65
416,94	1269,74
417,15	1354,73
417,36	1356,78
417,56	1392,11
417,77	1390,57
417,98	1433,07
418,19	1597,42
418,40	1598,44
418,60	1578,47
418,81	1617,38
419,02	1653,73
419,23	1632,23
419,44	1658,85
419,64	1769,44
419,85	1899,49
420,06	1914,85
420,27	1942,50
420,47	2009,06
420,68	2030,05
420,89	2136,54
421,10	2159,58
421,30	2248,16
421,51	2301,92
421,72	2343,39
421,93	2360,28
422,14	2472,92
422,34	2578,90
422,55	2454,49
422,76	2579,42
422,97	2643,42
423,17	2783,19
423,38	2782,17
423,59	2733,53
423,80	2946,52
424,00	2949,08
424,21	3009,49
424,42	3068,37
424,63	3182,54
424,83	3120,08
425,04	3434,44
425,25	3246,03
425,46	3521,99
425,66	3567,05
425,87	3656,65
426,08	3620,30
426,28	3832,26
426,49	3741,13
426,70	3985,86
426,91	3966,40
427,11	4062,66
427,32	4163,01
427,53	4098,50
427,74	4242,37
427,94	4295,61
428,15	4419,00
428,36	4440,51
428,56	4527,03
428,77	4724,66
428,98	4706,23
429,19	4781,50
429,39	4823,99
429,60	4865,46
429,81	4925,88
430,01	5065,14
430,22	5115,83
430,43	5287,86
430,64	5206,45
430,84	5254,58
431,05	5539,24
431,26	5604,78
431,46	5612,46
431,67	5605,29
431,88	5986,72
432,08	5966,76
432,29	6061,48
432,50	6066,60
432,70	6159,78
432,91	6249,38
433,12	6438,81
433,33	6423,97
433,53	6370,21
433,74	6647,19
433,95	6658,97
434,15	6524,83
434,36	6848,41
434,57	6761,88
434,77	6728,60
434,98	7005,08
435,19	6992,28
435,39	7136,66
435,60	7176,08
435,81	7552,40
436,01	7271,83
436,22	7523,21
436,43	7551,88
436,63	7754,12
436,84	7770,51
437,05	7740,81
437,25	7654,80
437,46	7939,97
437,67	7979,40
437,87	7919,50
438,08	8002,95
438,29	8316,29
438,49	8296,32
438,70	8333,18
438,91	8493,44
439,11	8874,87
439,32	8990,58
439,52	8788,35
439,73	8654,20
439,94	8764,79
440,14	9067,89
440,35	9232,76
440,56	9098,10
440,76	9266,03
440,97	9426,80
441,18	9451,89
441,38	9378,16
441,59	9627,50
441,79	9750,38
442,00	9829,23
442,21	9807,72
442,41	9987,43
442,62	9806,70
442,83	10090,85
443,03	9966,44
443,24	10277,22
443,44	10435,42
443,65	10542,94
443,86	10360,16
444,06	10582,37
444,27	10899,29
444,48	11035,99
444,68	10904,92
444,89	11271,51
445,09	11559,25
445,30	11244,37
445,51	11722,06
445,71	11694,93
445,92	12014,41
446,12	12051,78
446,33	12008,26
446,54	12342,08
446,74	12685,12
446,95	12173,64
447,15	12554,05
447,36	12689,73
447,57	12528,96
447,77	12943,16
447,98	13089,59
448,18	12968,76
448,39	12832,57
448,59	13519,15
448,80	13409,59
449,01	13402,42
449,21	13447,47
449,42	13623,60
449,62	14022,44
449,83	13842,73
450,04	13755,69
450,24	14295,85
450,45	14188,84
450,65	14070,57
450,86	14340,39
451,06	14509,86
451,27	14627,62
451,47	14194,98
451,68	14428,45
451,89	14680,35
452,09	14731,04
452,30	14432,04
452,50	14801,69
452,71	15074,59
452,91	14893,34
453,12	14887,71
453,33	14974,24
453,53	14660,38
453,74	15271,19
453,94	14943,52
454,15	14465,32
454,35	14457,12
454,56	14986,52
454,76	15132,95
454,97	14709,02
455,17	14751,52
455,38	14971,16
455,58	14701,34
455,79	14536,48
456,00	14567,71
456,20	14373,67
456,41	14676,77
456,61	13908,27
456,82	13762,86
457,02	14120,74
457,23	14098,22
457,43	14032,68
457,64	13334,32
457,84	13347,12
458,05	13376,82
458,25	13278,52
458,46	13231,93
458,66	13013,82
458,87	13042,49
459,07	13077,82
459,28	12731,71
459,48	12633,41
459,69	12583,74
459,89	12353,86
460,10	12422,47
460,30	12586,30
460,51	12011,85
460,71	12062,54
460,92	12088,14
461,12	11856,20
461,33	11857,23
461,53	11388,24
461,74	11269,97
461,94	11234,13
462,15	11340,63
462,35	11007,83
462,56	10696,54
462,76	10734,43
462,97	10832,73
463,17	10462,05
463,38	10476,38
463,58	10237,28
463,79	10504,03
463,99	10147,69
464,20	10099,56
464,40	9916,26
464,61	9719,66
464,81	9858,41
465,02	9501,55
465,22	9516,40
465,43	9389,42
465,63	9196,92
465,83	9120,63
466,04	9267,06
466,24	8823,16
466,45	9185,14
466,65	8822,14
466,86	8633,72
467,06	8452,48
467,27	8602,49
467,47	8729,47
467,68	8405,38
467,88	8224,13
468,08	8315,78
468,29	8240,51
468,49	8292,74
468,70	8180,10
468,90	7961,48
469,11	8078,21
469,31	7920,52
469,52	7820,17
469,72	8128,39
469,92	7802,76
470,13	7791,50
470,33	7677,83
470,54	7538,57
470,74	7702,92
470,95	7581,07
471,15	7563,15
471,35	7333,78
471,56	7333,26
471,76	7365,01
471,97	7374,22
472,17	7226,77
472,38	7211,92
472,58	7211,92
472,78	7243,15
472,99	7131,54
473,19	7021,46
473,40	7297,94
473,60	6889,88
473,80	7046,04
474,01	6979,99
474,21	6993,81
474,42	6964,12
474,62	7037,33
474,83	6733,21
475,03	6754,71
475,23	6699,93
475,44	6713,24
475,64	6737,82
475,85	6609,31
476,05	6580,12
476,25	6637,47
476,46	6636,44
476,66	6447,52
476,86	6502,81
477,07	6468,51
477,27	6589,85
477,48	6308,77
477,68	6298,53
477,88	6407,07
478,09	6250,91
478,29	6333,34
478,50	6258,08
478,70	6192,03
478,90	6132,64
479,11	6144,93
479,31	6093,22
479,51	6260,13
479,72	6098,85
479,92	6022,05
480,12	6055,33
480,33	5974,44
480,53	5964,20
480,74	5989,28
480,94	6031,78
481,14	6047,14
481,35	5960,10
481,55	5937,06
481,75	5880,23
481,96	5909,41
482,16	5810,60
482,36	5908,39
482,57	5911,97
482,77	5748,14
482,97	5773,74
483,18	5756,33
483,38	5818,79
483,58	5746,60
483,79	5701,54
483,99	5719,46
484,19	5626,79
484,40	5725,61
484,60	5627,31
484,80	5652,91
485,01	5674,41
485,21	5595,56
485,41	5488,56
485,62	5617,07
485,82	5519,28
486,02	5582,25
486,23	5544,36
486,43	5498,28
486,63	5469,10
486,84	5488,56
487,04	5463,98
487,24	5506,48
487,45	5445,04
487,65	5508,52
487,85	5436,33
488,06	5481,39
488,26	5362,61
488,46	5474,73
488,67	5380,53
488,87	5408,69
489,07	5388,72
489,27	5473,20
489,48	5375,92
489,68	5393,33
489,88	5554,60
490,09	5422,00
490,29	5504,94
490,49	5493,68
490,70	5506,48
490,90	5562,80
491,10	5440,43
491,30	5495,21
491,51	5380,53
491,71	5623,21
491,91	5473,20
492,12	5498,80
492,32	5371,31
492,52	5434,80
492,72	5415,85
492,93	5516,72
493,13	5510,57
493,33	5495,72
493,53	5532,59
493,74	5440,43
493,94	5598,12
494,14	5428,65
494,34	5580,20
494,55	5473,20
494,75	5506,99
494,95	5554,09
495,16	5621,16
495,36	5567,92
495,56	5585,83
495,76	5520,30
495,97	5652,91
496,17	5661,10
496,37	5676,97
496,57	5702,57
496,78	5634,99
496,98	5736,36
497,18	5734,82
497,38	5729,19
497,59	5728,17
497,79	5711,78
497,99	5798,31
498,19	5766,06
498,39	5846,95
498,60	5898,66
498,80	5909,93
499,00	5944,74
499,20	6039,46
499,41	5969,32
499,61	5978,02
499,81	6013,35
500,01	6123,43
500,22	6118,82
500,42	6134,18
500,62	6261,15
500,82	6288,29
501,02	6313,38
501,23	6471,07
501,43	6427,55
501,63	6491,04
501,83	6524,83
502,03	6572,44
502,24	6532,51
502,44	6614,43
502,64	6709,66
502,84	6771,10
503,05	6817,69
503,25	6843,29
503,45	7046,55
503,65	7054,74
503,85	7122,32
504,06	7164,82
504,26	7224,21
504,46	7381,39
504,66	7455,12
504,86	7648,65
505,06	7493,01
505,27	7595,92
505,47	7797,64
505,67	7867,27
505,87	7784,33
506,07	8035,21
506,28	8135,56
506,48	8230,27
506,68	8405,89
506,88	8364,93
507,08	8566,14
507,28	8569,73
507,49	8799,61
507,69	8868,22
507,89	8983,41
508,09	9173,36
508,29	9304,43
508,49	9410,93
508,70	9383,28
508,90	9683,82
509,10	9874,79
509,30	9891,18
509,50	10014,57
509,70	10162,53
509,91	10465,63
510,11	10498,91
510,31	10493,79
510,51	10679,13
510,71	10833,75
510,91	11119,96
511,11	11284,82
511,32	11436,88
511,52	11518,29
511,72	11787,60
511,92	11941,19
512,12	12021,58
512,32	11946,31
512,52	12373,32
512,73	12526,40
512,93	12833,08
513,13	12930,87
513,33	13199,67
513,53	13282,61
513,73	13615,92
513,93	13584,69
514,13	13855,02
514,34	14089,51
514,54	14354,72
514,74	14624,54
514,94	14894,36
515,14	14932,76
515,34	15312,66
515,54	15529,75
515,74	15773,46
515,94	15704,34
516,15	16099,08
516,35	16349,45
516,55	16640,26
516,75	16809,22
516,95	17202,94
517,15	17278,71
517,35	17493,24
517,55	17804,53
517,75	18065,13
517,95	18246,89
518,16	18354,41
518,36	18424,04
518,56	18772,19
518,76	19146,97
518,96	19493,08
519,16	19525,33
519,36	19995,34
519,56	20078,80
519,76	20443,85
519,96	20587,72
520,16	21049,53
520,37	21013,18
520,57	21578,93
520,77	21836,98
520,97	22204,59
521,17	22299,82
521,37	22728,36
521,57	22981,28
521,77	23141,02
521,97	23599,77
522,17	23593,11
522,37	24136,85
522,57	24226,45
522,77	24346,25
522,97	24805,00
523,17	25003,65
523,37	25006,72
523,58	25400,96
523,78	25791,09
523,98	26360,94
524,18	26183,28
524,38	26866,79
524,58	26904,68
524,78	26894,95
524,98	27759,70
525,18	27709,53
525,38	28180,56
525,58	28003,92
525,78	28542,54
525,98	28800,07
526,18	28969,54
526,38	29313,09
526,58	29648,96
526,78	29646,40
526,98	29983,80
527,18	30229,04
527,38	30559,79
527,58	30588,97
527,78	30923,30
527,98	31396,38
528,18	31450,14
528,38	31760,41
528,58	31927,83
528,78	32487,95
528,98	32695,82
529,18	32797,20
529,38	33150,98
529,58	33193,99
529,78	33595,90
529,98	33184,26
530,18	33787,39
530,38	34132,47
530,58	34547,70
530,78	35016,68
530,98	34657,78
531,18	35402,72
531,38	35768,80
531,58	36141,53
531,78	35818,97
531,98	35892,70
532,18	36236,76
532,38	36786,13
532,58	36802,00
532,78	37040,59
532,98	37712,83
533,18	37766,59
533,38	37830,08
533,58	38528,95
533,78	38392,25
533,98	38807,47
534,18	38786,48
534,38	39111,60
534,58	39390,63
534,78	39378,86
534,98	39629,73
535,18	40240,54
535,38	40506,26
535,58	40583,57
535,78	40520,60
535,98	40768,91
536,18	41188,24
536,38	41039,25
536,58	41863,55
536,78	41414,54
536,98	41738,63
537,18	42246,01
537,38	41571,21
537,58	41656,20
537,78	42294,65
537,98	42419,58
538,17	42552,69
538,37	42507,13
538,57	42969,46
538,77	43027,31
538,97	43117,42
539,17	43005,30
539,37	43311,98
539,57	43580,26
539,77	43853,67
539,97	43736,42
540,17	43735,40
540,37	44110,69
540,57	44252,00
540,77	44739,93
540,97	44896,08
541,16	44870,48
541,36	45182,29
541,56	44880,21
541,76	45122,90
541,96	45711,69
542,16	45429,58
542,36	45814,60
542,56	45775,69
542,76	46403,90
542,96	46244,67
543,16	45722,95
543,36	46389,05
543,55	46533,95
543,75	47082,80
543,95	46933,81
544,15	46851,38
544,35	46574,39
544,55	47130,93
544,75	47378,22
544,95	47663,40
545,15	47211,31
545,35	47693,10
545,54	47806,25
545,74	47864,10
545,94	47907,62
546,14	48510,24
546,34	48537,37
546,54	48382,24
546,74	48669,47
546,94	48687,39
547,14	48809,24
547,33	48874,77
547,53	48480,03
547,73	48999,70
547,93	49156,37
548,13	48853,27
548,33	48920,85
548,53	49221,39
548,72	49057,56
548,92	49813,77
549,12	49435,92
549,32	49491,72
549,52	49480,46
549,72	49329,42
549,92	49258,26
550,12	48873,24
550,31	49717,51
550,51	49138,96
550,71	49953,54
550,91	49940,74
551,11	49712,39
551,31	50146,05
551,50	49945,35
551,70	49775,88
551,90	50581,76
552,10	50329,34
552,30	50294,02
552,50	50253,06
552,70	50515,71
552,89	50423,55
553,09	50780,92
553,29	50649,85
553,49	50819,83
553,69	51411,18
553,88	51085,04
554,08	50927,86
554,28	50860,28
554,48	51004,66
554,68	51267,83
554,88	51050,23
555,07	51274,48
555,27	51290,87
555,47	51300,08
555,67	51243,76
555,87	51762,92
556,06	51326,70
556,26	51372,78
556,46	51594,99
556,66	51476,21
556,86	51247,35
557,06	51231,47
557,25	51299,57
557,45	50628,35
557,65	51516,65
557,85	51559,15
558,05	51137,78
558,24	51179,76
558,44	51313,39
558,64	51609,84
558,84	51290,35
559,03	51362,54
559,23	51806,95
559,43	51774,70
559,63	52133,60
559,83	51746,54
560,02	51386,10
560,22	51433,71
560,42	51996,90
560,62	52139,24
560,82	51770,60
561,01	51356,91
561,21	51528,94
561,41	51980,52
561,61	51634,41
561,80	51837,16
562,00	51606,25
562,20	51459,31
562,40	51997,93
562,59	51851,50
562,79	51872,49
562,99	52361,95
563,19	52410,59
563,38	52095,72
563,58	52193,51
563,78	52382,94
563,98	52677,85
564,17	52224,23
564,37	52236,51
564,57	52527,33
564,77	52465,89
564,96	52626,14
565,16	52607,20
565,36	52788,95
565,56	52564,70
565,75	52649,69
565,95	52334,31
566,15	52723,42
566,35	52696,80
566,54	52468,96
566,74	52588,77
566,94	52344,03
567,14	52536,03
567,33	52862,17
567,53	52435,68
567,73	52530,40
567,92	52712,67
568,12	52701,40
568,32	52697,31
568,52	52718,81
568,71	52250,34
568,91	52902,62
569,11	53139,67
569,30	52213,48
569,50	52675,29
569,70	52415,20
569,90	52352,74
570,09	52650,20
570,29	52588,25
570,49	52761,82
570,68	52144,36
570,88	52159,20
571,08	52771,55
571,27	52300,00
571,47	52309,22
571,67	52919,00
571,87	52717,79
572,06	52398,82
572,26	52974,81
572,46	52772,06
572,65	52307,17
572,85	52015,33
573,05	52730,59
573,24	52164,32
573,44	52252,90
573,64	52142,31
573,83	52550,37
574,03	52198,63
574,23	52843,23
574,42	52059,37
574,62	52023,01
574,82	51740,39
575,01	51495,15
575,21	51767,53
575,41	52047,59
575,60	51529,45
575,80	52126,44
576,00	52347,11
576,19	52243,17
576,39	51893,48
576,59	52364,51
576,78	52124,39
576,98	52088,55
577,18	52203,75
577,37	51952,87
577,57	51906,28
577,77	51921,13
577,96	51580,65
578,16	51728,11
578,35	51459,82
578,55	51261,68
578,75	51225,33
578,94	50596,09
579,14	51499,76
579,34	51712,23
579,53	51531,50
579,73	51351,28
579,93	51286,77
580,12	51278,58
580,32	50892,54
580,51	51260,15
580,71	51315,44
580,91	50853,11
581,10	51249,39
581,30	51019,00
581,50	50876,15
581,69	50335,49
581,89	50569,47
582,08	50502,91
582,28	49911,05
582,48	50525,44
582,67	50426,11
582,87	50591,48
583,06	50372,86
583,26	50414,33
583,46	50235,65
583,65	49744,65
583,85	49983,75
584,04	50117,38
584,24	49807,62
584,44	50348,29
584,63	50316,54
584,83	50273,54
585,02	49980,68
585,22	50507,52
585,42	50710,27
585,61	50135,30
585,81	49692,43
586,00	49754,38
586,20	49952,52
586,39	50031,88
586,59	49712,39
586,79	50020,10
586,98	49201,43
587,18	49561,87
587,37	49827,08
587,57	49064,72
587,76	48778,52
587,96	49092,37
588,16	48994,07
588,35	48353,05
588,55	47747,37
588,74	48297,76
588,94	48019,24
589,13	48359,20
589,33	48434,97
589,52	48093,99
589,72	47785,25
589,92	47948,07
590,11	48034,60
590,31	47608,62
590,50	47703,34
590,70	47461,68
590,89	47541,03
591,09	47734,57
591,28	47754,02
591,48	47708,46
591,67	47361,84
591,87	47470,89
592,06	46961,46
592,26	46805,30
592,46	46778,68
592,65	46945,59
592,85	46428,99
593,04	46679,35
593,24	46440,25
593,43	46247,23
593,63	46319,93
593,82	46171,46
594,02	46022,47
594,21	46606,65
594,41	45904,71
594,60	46324,54
594,80	46303,55
594,99	46160,70
595,19	45932,87
595,38	46444,86
595,58	46107,46
595,77	45962,56
595,97	46120,26
596,16	45927,75
596,36	45604,68
596,55	45948,23
596,75	45769,54
596,94	45527,88
597,14	45427,53
597,33	45214,03
597,53	45158,22
597,72	45135,70
597,92	44928,34
598,11	45077,84
598,31	44993,87
598,50	44779,35
598,70	44785,49
598,89	44716,37
599,09	44349,28
599,28	44696,41
599,48	43974,50
599,67	44283,23
599,87	44165,98
600,06	44026,21
600,26	43546,47
600,45	43691,88
600,64	43651,94
600,84	43205,48
601,03	43285,87
601,23	43199,85
601,42	43171,18
601,62	42813,81
601,81	42749,81
602,01	42827,12
602,20	42805,62
602,40	42411,38
602,59	42255,74
602,78	42623,86
602,98	42122,62
603,17	42169,21
603,37	41988,48
603,56	41872,26
603,76	42199,42
603,95	41859,97
604,15	41288,07
604,34	41525,13
604,53	41235,85
604,73	41698,18
604,92	41380,74
605,12	41254,79
605,31	40864,14
605,51	40985,49
605,70	40737,68
605,89	41019,28
606,09	40917,90
606,28	40995,73
606,48	40751,51
606,67	40588,18
606,87	41009,04
607,06	40468,37
607,25	40320,41
607,45	40235,93
607,64	39945,63
607,84	39970,21
608,03	39676,32
608,22	39593,38
608,42	39999,39
608,61	39498,66
608,81	38992,81
609,00	39092,65
609,19	39285,16
609,39	39346,60
609,58	39010,73
609,78	39079,34
609,97	38729,14
610,16	38644,66
610,36	38462,90
610,55	38567,35
610,75	38670,26
610,94	38647,73
611,13	38890,41
611,33	38809,01
611,52	38555,57
611,71	38071,74
611,91	38269,37
612,10	38270,39
612,30	37708,22
612,49	37800,38
612,68	37767,10
612,88	37232,58
613,07	37095,88
613,26	37456,84
613,46	37262,28
613,65	37192,14
613,84	37619,14
614,04	37717,44
614,23	37383,11
614,43	37635,01
614,62	37180,87
614,81	37371,85
615,01	37329,86
615,20	37421,51
615,39	36812,24
615,59	36639,70
615,78	36246,49
615,97	36402,64
616,17	36378,07
616,36	36142,04
616,55	36416,98
616,75	36376,53
616,94	36073,95
617,13	36196,82
617,33	36177,88
617,52	36194,78
617,71	36000,22
617,91	36212,18
618,10	36153,82
618,29	35823,58
618,49	35911,13
618,68	35781,09
618,87	35669,98
619,07	35839,97
619,26	35840,99
619,45	36206,55
619,65	35655,14
619,84	35773,41
620,03	35889,12
620,22	36019,67
620,42	35372,52
620,61	35743,20
620,80	35907,04
621,00	35899,36
621,19	35956,19
621,38	36116,95
621,58	35597,28
621,77	35320,81
621,96	35429,35
622,15	35383,27
622,35	35137,51
622,54	35235,81
622,73	35775,97
622,93	35315,17
623,12	35057,64
623,31	35049,45
623,50	35035,63
623,70	34984,43
623,89	34540,53
624,08	34857,96
624,28	35198,44
624,47	35269,61
624,66	35209,70
624,85	35540,96
625,05	35391,97
625,24	35122,66
625,43	35458,53
625,62	35192,81
625,82	35315,17
626,01	34928,62
626,20	34895,85
626,39	34656,75
626,59	34943,47
626,78	34421,23
626,97	34338,29
627,17	34105,34
627,36	33901,05
627,55	33780,73
627,74	33940,99
627,93	33961,98
628,13	33935,87
628,32	33981,95
628,51	34111,99
628,70	34019,83
628,90	33741,31
629,09	33617,92
629,28	33825,28
629,47	33699,84
629,67	33286,66
629,86	33840,12
630,05	33415,68
630,24	33614,85
630,44	33315,84
630,63	33145,86
630,82	33085,45
631,01	33021,45
631,20	32576,53
631,40	32699,92
631,59	32641,55
631,78	32551,95
631,97	32414,74
632,16	32329,23
632,36	32227,35
632,55	31963,16
632,74	32384,53
632,93	32200,72
633,13	31813,15
633,32	31705,63
633,51	31620,64
633,70	31861,79
633,89	31791,64
634,09	31591,45
634,28	31536,16
634,47	31663,13
634,66	31344,16
634,85	31381,54
635,04	31348,26
635,24	30913,58
635,43	31001,64
635,62	30692,40
635,81	30775,85
636,00	30686,76
636,20	30740,01
636,39	30829,10
636,58	30592,56
636,77	30285,36
636,96	30049,33
637,15	30321,20
637,35	30245,94
637,54	30043,70
637,73	30291,51
637,92	29928,50
638,11	29711,42
638,30	29710,39
638,50	29496,38
638,69	29659,71
638,88	29184,07
639,07	29132,87
639,26	29211,71
639,45	28658,25
639,64	28502,61
639,84	28696,65
640,03	28589,13
640,22	28654,15
640,41	28479,05
640,60	27813,98
640,79	27916,89
640,98	27726,94
641,18	27564,12
641,37	27587,68
641,56	27482,20
641,75	27603,55
641,94	27310,18
642,13	27374,17
642,32	27065,44
642,52	26999,91
642,71	26954,34
642,90	26862,69
643,09	26680,42
643,28	26901,61
643,47	26517,10
643,66	26616,43
643,85	26265,20
644,04	26568,81
644,24	26288,75
644,43	26244,21
644,62	25987,19
644,81	26191,98
645,00	25754,23
645,19	26039,92
645,38	25595,51
645,57	25905,27
645,76	25619,07
645,96	25560,19
646,15	25286,78
646,34	25380,99
646,53	24973,95
646,72	25213,06
646,91	24938,12
647,10	24799,37
647,29	24849,03
647,48	24719,49
647,67	24298,13
647,86	24546,44
648,05	24286,35
648,25	24163,98
648,44	24069,26
648,63	24081,04
648,82	23854,74
649,01	23559,32
649,20	23500,95
649,39	23459,48
649,58	23534,74
649,77	23371,42
649,96	23062,69
650,15	23060,13
650,34	22638,25
650,53	23122,08
650,72	22733,99
650,91	22326,96
651,11	22485,67
651,30	22294,70
651,49	22337,20
651,68	22253,74
651,87	21957,81
652,06	22272,17
652,25	22055,09
652,44	21957,81
652,63	21891,25
652,82	22102,19
653,01	21965,49
653,20	21584,05
653,39	21648,05
653,58	21439,16
653,77	21383,35
653,96	21336,76
654,15	21265,60
654,34	21194,43
654,53	21131,97
654,72	20960,96
654,91	20691,65
655,10	20608,20
655,29	20744,90
655,48	20860,10
655,67	20530,37
655,86	20644,55
656,05	20400,33
656,24	20093,13
656,43	19906,26
656,62	19878,61
656,81	19828,95
657,00	19877,58
657,19	19737,30
657,38	19486,93
657,57	19423,96
657,76	19259,61
657,95	19203,29
658,14	19162,33
658,33	18858,72
658,52	18859,74
658,71	18989,28
658,90	18935,01
659,09	18850,53
659,28	18704,10
659,47	18790,11
659,66	18553,06
659,85	18383,08
660,04	18423,01
660,23	18371,82
660,42	18185,96
660,61	18317,54
660,80	18025,71
660,99	18021,61
661,18	18089,71
661,37	17842,93
661,56	17670,39
661,75	17719,54
661,94	17729,27
662,13	17551,09
662,32	17359,10
662,51	17254,65
662,70	17450,23
662,89	17177,85
663,08	17065,21
663,27	17330,42
663,46	16980,22
663,65	17168,63
663,83	16902,91
664,02	17198,33
664,21	17228,03
664,40	17241,34
664,59	17070,33
664,78	16868,09
664,97	16746,24
665,16	16380,17
665,35	16662,79
665,54	16460,55
665,73	16437,00
665,92	16372,49
666,11	16278,79
666,30	16293,13
666,49	16290,57
666,67	15919,37
666,86	15971,08
667,05	15890,19
667,24	16084,75
667,43	15777,04
667,62	15696,14
667,81	15471,38
668,00	15524,12
668,19	15398,17
668,38	15429,91
668,57	15293,72
668,76	15275,29
668,94	15115,55
669,13	14960,92
669,32	15040,79
669,51	14858,01
669,70	15015,71
669,89	14964,51
670,08	14925,60
670,27	14618,91
670,46	14726,94
670,64	14597,41
670,83	14523,17
671,02	14440,23
671,21	14443,30
671,40	14371,11
671,59	14355,24
671,78	14176,04
671,97	14007,08
672,16	13975,34
672,34	14002,99
672,53	13839,15
672,72	13715,25
672,91	13753,65
673,10	13648,18
673,29	13735,21
673,48	13562,67
673,66	13336,88
673,85	13508,91
674,04	13438,26
674,23	13372,21
674,42	13349,68
674,61	13425,97
674,80	13350,71
674,98	13243,70
675,17	13198,65
675,36	12921,66
675,55	13070,14
675,74	12940,09
675,93	12892,99
676,12	12730,17
676,30	12782,91
676,49	12729,66
676,68	12618,05
676,87	12574,53
677,06	12500,29
677,25	12510,53
677,43	12570,43
677,62	12477,25
677,81	12373,83
678,00	12212,04
678,19	12209,48
678,37	12066,63
678,56	12072,78
678,75	12048,71
678,94	11893,58
679,13	11947,34
679,32	11909,96
679,50	11873,61
679,69	11903,31
679,88	11700,05
680,07	11594,58
680,26	11416,40
680,44	11406,16
680,63	11323,73
680,82	11277,14
681,01	11289,94
681,20	11315,03
681,38	11230,55
681,57	11118,42
681,76	11102,04
681,95	10887,00
682,14	10921,82
682,32	10830,68
682,51	10807,64
682,70	10880,86
682,89	10914,14
683,07	10815,83
683,26	10755,93
683,45	10586,46
683,64	10649,95
683,83	10594,14
684,01	10530,66
684,20	10609,50
684,39	10568,54
684,58	10436,45
684,76	10444,13
684,95	10293,60
685,14	10358,63
685,33	10164,07
685,52	10367,84
685,70	10136,93
685,89	10234,21
686,08	10241,38
686,27	10061,67
686,45	10071,91
686,64	10092,39
686,83	10110,82
687,02	9885,55
687,20	10047,85
687,39	9780,07
687,58	9818,47
687,76	9664,36
687,95	9851,24
688,14	9803,63
688,33	9801,07
688,51	9903,46
688,70	9625,97
688,89	9655,15
689,08	9586,03
689,26	9461,10
689,45	9432,43
689,64	9419,63
689,83	9293,68
690,01	9337,71
690,20	9359,22
690,39	9219,44
690,57	9057,14
690,76	8984,44
690,95	8850,30
691,14	8948,09
691,32	8830,33
691,51	8764,79
691,70	8769,91
691,88	8700,80
692,07	8692,09
692,26	8512,38
692,44	8610,68
692,63	8518,01
692,82	8374,14
693,01	8321,92
693,19	8290,69
693,38	8129,41
693,57	8100,74
693,75	8141,19
693,94	8111,49
694,13	8160,13
694,31	8153,99
694,50	8172,42
694,69	8172,42
694,87	8243,59
695,06	8130,44
695,25	8135,04
695,43	8276,35
695,62	7992,20
695,81	7989,13
695,99	7984,01
696,18	7857,03
696,37	7827,85
696,55	7915,40
696,74	7740,81
696,93	7861,64
697,11	7747,98
697,30	7583,12
697,49	7437,20
697,67	7568,78
697,86	7464,85
698,05	7421,84
698,23	7460,24
698,42	7534,99
698,61	7297,42
698,79	7303,06
698,98	7309,71
699,17	7166,35
699,35	7197,59
699,54	7037,33
699,72	6921,62
699,91	7002,52
700,10	6992,79
700,28	7073,68
700,47	7006,61
700,66	6876,57
700,84	7133,08
701,03	7062,42
701,21	7069,59
701,40	7023,00
701,59	6942,61
701,77	6859,67
701,96	6889,88
702,15	6906,26
702,33	6801,82
702,52	6700,44
702,70	6735,77
702,89	6698,91
703,08	6674,84
703,26	6632,35
703,45	6564,76
703,63	6604,70
703,82	6460,32
704,01	6514,59
704,19	6534,56
704,38	6376,86
704,56	6516,12
704,75	6348,19
704,94	6303,14
705,12	6251,42
705,31	6333,86
705,49	6163,87
705,68	6141,35
705,86	6290,85
706,05	6104,99
706,24	6167,97
706,42	6039,97
706,61	5969,32
706,79	6046,12
706,98	5808,55
707,17	5936,55
707,35	5822,89
707,54	5814,70
707,72	5822,89
707,91	5729,70
708,09	5791,66
708,28	5829,03
708,46	5704,10
708,65	5734,82
708,84	5662,12
709,02	5601,71
709,21	5548,46
709,39	5642,67
709,58	5656,49
709,76	5505,45
709,95	5518,76
710,13	5390,25
710,32	5471,66
710,50	5423,53
710,69	5457,32
710,88	5412,27
711,06	5365,68
711,25	5362,09
711,43	5326,25
711,62	5346,22
711,80	5265,33
711,99	5138,87
712,17	5092,27
712,36	5275,06
712,54	5186,48
712,73	5166,51
712,91	5177,26
713,10	5127,60
713,28	5020,60
713,47	4963,25
713,65	4904,89
713,84	4933,04
714,02	4903,86
714,21	4849,08
714,39	4914,61
714,58	4719,54
714,76	4677,05
714,95	4734,90
715,13	4655,54
715,32	4680,12
715,50	4547,51
715,69	4747,19
715,87	4580,28
716,06	4567,99
716,24	4551,61
716,43	4618,17
716,61	4623,29
716,80	4528,57
716,98	4407,74
717,17	4546,49
717,35	4498,36
717,54	4305,34
717,72	4265,41
717,91	4357,57
718,09	4292,54
718,28	4350,91
718,46	4319,68
718,65	4267,97
718,83	4272,06
719,01	4280,77
719,20	4171,71
719,38	4150,72
719,57	4211,65
719,75	4073,41
719,94	4185,02
720,12	4185,54
720,31	4170,18
720,49	4070,85
720,68	4093,89
720,86	4015,55
721,04	3977,67
721,23	3925,96
721,41	3806,66
721,60	3935,68
721,78	3934,66
721,97	3851,72
722,15	3878,85
722,34	3853,25
722,52	3864,01
722,70	3707,85
722,89	3810,25
723,07	3726,28
723,26	3765,70
723,44	3637,19
723,63	3742,66
723,81	3663,82
723,99	3694,54
724,18	3751,88
724,36	3627,46
724,55	3650,50
724,73	3508,68
724,91	3576,78
725,10	3576,27
725,28	3519,43
725,47	3525,58
725,65	3505,10
725,83	3461,58
726,02	3436,49
726,20	3467,21
726,39	3356,11
726,57	3404,24
726,75	3283,41
726,94	3352,01
727,12	3435,47
727,31	3274,19
727,49	3278,80
727,67	3336,65
727,86	3238,86
728,04	3164,62
728,23	3247,05
728,41	3066,32
728,59	3196,37
728,78	3175,38
728,96	3129,81
729,14	3056,08
729,33	3099,60
729,51	3007,44
729,69	3094,99
729,88	2976,72
730,06	3010,00
730,25	3010,51
730,43	3006,42
730,61	3053,52
730,80	2917,84
730,98	2942,42
731,16	2941,91
731,35	2908,63
731,53	2890,71
731,71	2831,32
731,90	2837,97
732,08	2862,55
732,26	2766,81
732,45	2723,29
732,63	2879,96
732,81	2711,51
733,00	2750,42
733,18	2742,23
733,36	2736,09
733,55	2764,76
733,73	2734,04
733,91	2636,76
734,10	2611,16
734,28	2663,90
734,46	2607,58
734,65	2714,07
734,83	2635,74
735,01	2582,49
735,20	2629,08
735,38	2491,35
735,56	2512,86
735,75	2539,48
735,93	2407,90
736,11	2584,54
736,30	2501,08
736,48	2451,42
736,66	2470,36
736,84	2564,06
737,03	2428,89
737,21	2418,14
737,39	2394,08
737,58	2517,98
737,76	2365,92
737,94	2339,80
738,12	2428,38
738,31	2417,12
738,49	2367,45
738,67	2302,43
738,86	2412,00
739,04	2346,97
739,22	2442,71
739,40	2340,32
739,59	2304,48
739,77	2312,16
739,95	2332,12
740,14	2222,05
740,32	2249,69
740,50	2264,54
740,68	2201,57
740,87	2226,14
741,05	2231,26
741,23	2231,26
741,41	2130,91
741,60	2142,18
741,78	2185,18
741,96	2223,07
742,14	2113,50
742,33	2108,90
742,51	2141,15
742,69	2148,83
742,87	2063,33
743,06	2050,02
743,24	2031,07
743,42	2086,88
743,60	2008,03
743,79	2004,96
743,97	2046,94
744,15	1936,87
744,33	1931,23
744,52	1863,14
744,70	1950,18
744,88	1921,51
745,06	1913,31
745,24	1944,03
745,43	1905,12
745,61	1834,98
745,79	1855,46
745,97	1918,43
746,16	1930,21
746,34	1903,07
746,52	1907,17
746,70	1760,23
746,88	1917,41
747,07	1781,73
747,25	1742,82
747,43	1802,21
747,61	1839,59
747,79	1830,88
747,98	1746,41
748,16	1816,04
748,34	1724,39
748,52	1670,63
748,70	1667,05
748,89	1788,39
749,07	1693,16
749,25	1709,03
749,43	1685,48
749,61	1701,86
749,79	1830,37
749,98	1710,57
750,16	1626,09
750,34	1651,69
750,52	1691,62
750,70	1704,42
750,88	1639,40
751,07	1731,56
751,25	1593,32
751,43	1599,46
751,61	1530,34
751,79	1571,30
751,97	1645,54
752,16	1580,52
752,34	1581,54
752,52	1534,44
752,70	1673,70
752,88	1539,05
753,06	1625,58
753,25	1560,04
753,43	1555,94
753,61	1576,42
753,79	1438,19
753,97	1539,56
754,15	1524,20
754,33	1574,38
754,52	1616,36
754,70	1499,11
754,88	1536,49
755,06	1552,87
755,24	1564,14
755,42	1512,94
755,60	1499,63
755,78	1540,07
755,97	1606,63
756,15	1539,05
756,33	1497,07
756,51	1566,70
756,69	1474,54
756,87	1419,24
757,05	1477,10
757,23	1398,25
757,41	1463,79
757,60	1439,21
757,78	1473,00
757,96	1429,99
758,14	1401,83
758,32	1357,80
758,50	1441,77
758,68	1498,60
758,86	1454,57
759,04	1433,07
759,22	1419,24
759,41	1363,44
759,59	1385,45
759,77	1461,23
759,95	1271,79
760,13	1377,26
760,31	1386,47
760,49	1400,30
760,67	1360,88
760,85	1283,05
761,03	1419,24
761,21	1327,60
761,39	1397,74
761,57	1393,13
761,76	1427,43
761,94	1452,01
762,12	1390,06
762,30	1394,67
762,48	1395,69
762,66	1357,29
762,84	1385,96
763,02	1340,91
763,20	1382,89
763,38	1357,29
763,56	1313,26
763,74	1296,36
763,92	1277,42
764,10	1375,21
764,28	1282,54
764,46	1274,86
764,64	1319,92
764,82	1354,73
765,00	1270,76
765,19	1225,20
765,37	1209,84
765,55	1214,45
765,73	1180,65
765,91	1290,22
766,09	1235,95
766,27	1239,02
766,45	1182,19
766,63	1189,36
766,81	1282,03
766,99	1261,04
767,17	1168,88
767,35	1246,70
767,53	1235,44
767,71	1247,72
767,89	1183,21
768,07	1247,72
768,25	1163,25
768,43	1178,09
768,61	1155,57
768,79	1179,12
768,97	1158,64
769,15	1148,91
769,33	1134,06
769,51	1123,31
769,69	1091,06
769,87	1154,54
770,05	1161,71
770,23	1138,67
770,41	1115,63
770,59	1080,82
770,77	1057,78
770,95	1109,49
771,13	1099,25
771,31	1029,10
771,49	1007,60
771,67	1082,35
771,85	1177,07
772,03	1071,60
772,21	1041,39
772,38	1043,44
772,56	1040,37
772,74	1045,49
772,92	975,35
773,10	1063,92
773,28	1055,73
773,46	951,79
773,64	984,05
773,82	1021,94
774,00	997,87
774,18	1043,95
774,36	934,90
774,54	951,79
774,72	999,92
774,90	888,82
775,08	938,48
775,26	1063,92
775,44	941,55
775,62	905,20
775,80	915,95
775,97	949,75
776,15	990,70
776,33	1018,86
776,51	856,05
776,69	937,97
776,87	930,80
777,05	978,42
777,23	972,79
777,41	766,96
777,59	760,82
777,77	813,56
777,95	938,99
778,13	842,74
778,30	899,57
778,48	953,84
778,66	919,03
778,84	814,07
779,02	855,03
779,20	834,04
779,38	897,52
779,56	869,87
779,74	820,21
779,92	766,96
780,09	850,93
780,27	872,43
780,45	723,96
780,63	880,11
780,81	842,23
780,99	801,27
781,17	859,12
781,35	773,11
781,52	812,02
781,70	835,06
781,88	784,88
782,06	900,08
782,24	821,24
782,42	856,56
782,60	742,39
782,78	752,12
782,95	813,56
783,13	758,77
783,31	733,68
783,49	768,50
783,67	739,32
783,85	726,00
784,03	676,34
784,20	638,45
784,38	715,77
784,56	723,96
784,74	670,71
784,92	692,73
785,10	738,29
785,28	766,45
785,45	763,38
785,63	751,09
785,81	665,08
785,99	708,09
786,17	716,79
786,35	661,49
786,52	692,73
786,70	674,81
786,88	617,46
787,06	623,61
787,24	741,36
787,41	676,34
787,59	676,85
787,77	616,95
787,95	574,46
788,13	632,82
788,31	602,61
788,48	633,33
788,66	582,14
788,84	567,29
789,02	673,78
789,20	631,29
789,37	572,92
789,55	689,65
789,73	650,23
789,91	674,81
790,09	620,02
790,26	585,21
790,44	585,72
790,62	591,35
790,80	699,89
790,98	660,98
791,15	639,48
791,33	646,13
791,51	593,40
791,69	553,46
791,86	662,01
792,04	610,29
792,22	587,26
792,40	549,88
792,58	549,88
792,75	588,28
792,93	630,77
793,11	523,26
793,29	468,47
793,46	557,56
793,64	583,67
793,82	553,98
794,00	503,80
794,17	642,04
794,35	481,27
794,53	542,20
794,71	493,05
794,88	556,02
795,06	495,61
795,24	528,89
795,42	539,64
795,59	451,07
795,77	514,55
795,95	470,01
796,13	510,46
796,30	487,93
796,48	558,07
796,66	563,19
796,83	572,92
797,01	505,85
797,19	424,44
797,37	538,62
797,54	467,96
797,72	491,51
797,90	568,82
798,08	381,95
798,25	455,16
798,43	509,43
798,61	484,34
798,78	473,59
798,96	525,82
799,14	437,24
799,31	499,19
799,49	534,52
799,67	454,65
799,85	550,39
800,02	512,50
800,20	369,15
800,38	377,85
800,55	450,04
800,73	410,11
800,91	447,48
801,08	434,17
801,26	459,26
801,44	469,50
801,61	486,39
801,79	441,34
801,97	418,30
802,15	425,98
802,32	368,63
802,50	432,63
802,68	414,71
802,85	467,96
803,03	491,00
803,21	458,74
803,38	451,07
803,56	481,27
803,74	374,27
803,91	439,80
804,09	413,18
804,26	425,47
804,44	446,46
804,62	434,17
804,79	458,74
804,97	366,59
805,15	349,69
805,32	378,36
805,50	390,65
805,68	404,99
805,85	330,75
806,03	401,40
806,21	411,13
806,38	316,41
806,56	363,00
806,73	437,75
806,91	462,33
807,09	356,86
807,26	381,95
807,44	407,55
807,62	424,95
807,79	405,50
807,97	363,51
808,14	372,73
808,32	442,87
808,50	357,88
808,67	336,89
808,85	393,72
809,02	437,75
809,20	347,13
809,38	352,76
809,55	278,01
809,73	394,23
809,90	331,77
810,08	430,07
810,26	351,74
810,43	417,79
810,61	367,10
810,78	360,44
810,96	292,35
811,14	299,52
811,31	297,47
811,49	230,91
811,66	310,78
811,84	298,49
812,02	349,18
812,19	387,58
812,37	319,48
812,54	396,28
812,72	335,87
812,89	409,08
813,07	353,27
813,25	420,86
813,42	337,91
813,60	366,59
813,77	471,03
813,95	376,31
814,12	213,50
814,30	288,76
814,47	334,33
814,65	304,64
814,83	337,91
815,00	354,81
815,18	381,95
815,35	320,51
815,53	434,17
815,70	286,72
815,88	329,21
816,05	313,34
816,23	268,80
816,40	360,95
816,58	302,59
816,75	280,57
816,93	377,34
817,10	327,16
817,28	307,71
817,46	260,09
817,63	303,10
817,81	316,41
817,98	217,60
818,16	302,08
818,33	254,46
818,51	286,72
818,68	313,34
818,86	387,58
819,03	329,72
819,21	346,62
819,38	294,40
819,56	241,15
819,73	271,87
819,91	285,69
820,08	300,54
820,26	263,16
820,43	375,29
820,61	229,37
820,78	222,20
820,96	232,96
821,13	330,23
821,31	268,28
821,48	217,60
821,66	259,07
821,83	310,78
822,00	209,40
822,18	261,12
822,35	256,51
822,53	326,14
822,70	229,88
822,88	323,58
823,05	267,26
823,23	255,48
823,40	196,09
823,58	273,92
823,75	203,77
823,93	223,23
824,10	191,49
824,28	196,09
824,45	290,30
824,62	182,78
824,80	228,35
824,97	270,84
825,15	298,49
825,32	234,49
825,50	257,02
825,67	282,62
825,85	333,82
826,02	168,96
826,19	252,92
826,37	303,10
826,54	233,98
826,72	199,16
826,89	221,18
827,07	211,45
827,24	266,75
827,41	239,10
827,59	251,39
827,76	185,34
827,94	195,58
828,11	339,45
828,28	207,87
828,46	238,59
828,63	240,12
828,81	211,96
828,98	217,60
829,15	313,34
829,33	173,05
829,50	218,11
829,68	200,19
829,85	236,54
830,02	265,21
830,20	233,47
830,37	257,53
830,55	269,82
830,72	258,56
830,89	225,28
831,07	227,84
831,24	317,44
831,42	225,28
831,59	198,14
831,76	214,01
831,94	228,35
832,11	275,45
832,28	262,65
832,46	199,16
832,63	203,26
832,81	231,93
832,98	205,82
833,15	232,96
833,33	183,81
833,50	237,05
833,67	252,41
833,85	227,32
834,02	223,74
834,19	120,83
834,37	205,82
834,54	235,00
834,71	192,51
834,89	226,30
835,06	164,35
835,23	169,98
835,41	229,37
835,58	259,07
835,75	186,88
835,93	171,52
836,10	197,12
836,27	194,05
836,45	330,75
836,62	224,76
836,79	230,40
836,97	210,94
837,14	290,81
837,31	170,49
837,49	188,93
837,66	178,17
837,83	233,47
838,01	168,96
838,18	253,44
838,35	147,45
838,53	194,56
838,70	165,89
838,87	217,60
839,04	169,47
839,22	336,38
839,39	147,45
839,56	168,45
839,74	233,47
839,91	178,17
840,08	186,88
840,26	193,02
840,43	169,47
840,60	195,58
840,77	176,64
840,95	261,12
841,12	181,76
841,29	201,72
841,46	242,68
841,64	205,31
841,81	219,64
841,98	151,04
842,16	181,25
842,33	210,43
842,50	217,08
842,67	103,42
842,85	157,18
843,02	249,34
843,19	156,67
843,36	175,10
843,54	195,07
843,71	207,87
843,88	150,01
844,05	81,92
844,23	156,67
844,40	144,89
844,57	170,49
844,74	174,59
844,92	177,15
845,09	162,30
845,26	155,13
845,43	67,07
845,61	141,82
845,78	234,49
845,95	151,04
846,12	280,57
846,29	225,28
846,47	228,35
846,64	147,97
846,81	122,88
846,98	51,20
847,16	168,45
847,33	196,61
847,50	165,37
847,67	89,60
847,84	154,11
848,02	114,17
848,19	113,15
848,36	193,02
848,53	186,88
848,70	160,77
848,88	140,80
849,05	199,16
849,22	124,93
849,39	144,89
849,56	50,69
849,74	165,89
849,91	179,71
850,08	220,67
850,25	137,73
850,42	216,06
850,60	193,53
850,77	209,40
850,94	171,52
851,11	207,87
851,28	132,61
851,45	187,90
851,63	185,34
851,80	187,39
851,97	142,85
852,14	206,84
852,31	213,50
852,48	102,91
852,66	153,09
852,83	159,23
853,00	140,80
853,17	170,49
853,34	175,10
853,51	167,42
853,68	167,42
853,86	184,32
854,03	135,17
854,20	152,57
854,37	106,49
854,54	264,70
854,71	160,25
854,88	160,25
855,06	181,25
855,23	208,89
855,40	162,81
855,57	83,45
855,74	176,13
855,91	169,98
856,08	145,41
856,25	175,10
856,43	111,10
856,60	90,11
856,77	200,19
856,94	152,06
857,11	187,39
857,28	190,97
857,45	208,89
857,62	120,32
857,79	172,03
857,97	192,51
858,14	121,34
858,31	224,25
858,48	187,39
858,65	142,85
858,82	89,60
858,99	148,48
859,16	128,51
859,33	66,05
859,50	137,21
859,67	66,05
859,85	107,01
860,02	51,71
860,19	156,16
860,36	113,15
860,53	176,13
860,70	189,44
860,87	179,20
861,04	208,38
861,21	186,37
861,38	215,55
861,55	108,03
861,72	158,72
861,89	164,35
862,06	132,09
862,23	122,88
862,41	128,51
862,58	129,53
862,75	168,96
862,92	188,93
863,09	102,40
863,26	149,50
863,43	151,55
863,60	168,96
863,77	156,16
863,94	113,15
864,11	194,56
864,28	110,59
864,45	67,07
864,62	261,63
864,79	201,21
864,96	150,01
865,13	218,62
865,30	107,52
865,47	178,69
865,64	46,59
865,81	158,72
865,98	242,17
866,15	107,01
866,32	212,99
866,49	187,90
866,66	195,07
866,83	157,18
867,00	150,53
867,17	169,47
867,34	35,33
867,51	229,37
867,68	72,19
867,85	235,52
868,02	154,11
868,19	150,53
868,36	157,69
868,53	143,36
868,70	98,30
868,87	97,79
869,04	203,77
869,21	132,09
869,38	162,81
869,55	110,08
869,72	201,72
869,89	112,64
870,06	179,71
870,23	115,20
870,40	129,02
870,57	119,81
870,74	81,41
870,91	162,81
871,08	57,86
871,25	150,53
871,42	188,41
871,59	149,50
871,76	136,70
871,93	31,74
872,10	116,22
872,27	259,58
872,44	114,69
872,60	101,89
872,77	215,55
872,94	122,37
873,11	154,11
873,28	153,60
873,45	123,90
873,62	223,74
873,79	101,89
873,96	58,37
874,13	152,57
874,30	33,79
874,47	157,18
874,64	156,16
874,81	50,18
874,97	138,75
875,14	111,61
875,31	74,75
875,48	135,68
875,65	139,26
875,82	132,61
875,99	177,15
876,16	177,66
876,33	185,85
876,50	114,17
876,67	132,09
876,83	80,38
877,00	120,32
877,17	212,99
877,34	52,22
877,51	114,69
877,68	125,95
877,85	40,96
878,02	89,09
878,19	116,73
878,35	88,06
878,52	147,97
878,69	96,25
878,86	76,80
879,03	82,94
879,20	185,85
879,37	143,36
879,54	104,96
879,70	151,04
879,87	111,61
880,04	162,81
880,21	139,26
880,38	158,21
880,55	116,22
880,72	146,43
880,89	64,00
881,05	153,09
881,22	123,39
881,39	138,24
881,56	159,74
881,73	72,70
881,90	150,53
882,06	105,98
882,23	61,95
882,40	123,90
882,57	138,24
882,74	133,63
882,91	166,91
883,07	64,00
883,24	197,12
883,41	120,83
883,58	93,18
883,75	88,06
883,92	78,33
884,08	113,15
884,25	121,85
884,42	92,16
884,59	162,81
884,76	190,46
884,92	99,84
885,09	122,88
885,26	117,25
885,43	131,07
885,60	154,11
885,76	129,02
885,93	65,54
886,10	121,34
886,27	161,79
886,44	104,45
886,60	214,52
886,77	144,38
886,94	100,35
887,11	89,09
887,28	95,23
887,44	172,03
887,61	108,03
887,78	151,55
887,95	114,17
888,12	187,90
888,28	116,22
888,45	157,69
888,62	111,61
888,79	87,55
888,95	48,13
889,12	124,41
889,29	160,77
889,46	92,67
889,62	125,44
889,79	156,16
889,96	143,36
890,13	138,24
890,29	133,12
890,46	123,39
890,63	93,69
890,80	165,89
890,96	134,14
891,13	95,23
891,30	100,86
891,47	80,38
891,63	221,69
891,80	172,54
891,97	121,34
892,14	163,33
892,30	96,25
892,47	198,14
892,64	101,37
892,80	114,69
892,97	84,99
893,14	71,68
893,31	152,57
893,47	88,57
893,64	203,26
893,81	134,14
893,97	152,57
894,14	173,57
>>>>>End Processed Spectral Data<<<<<
