SpectraSuite Datei
++++++++++++++++++++++++++++++++++++
Datum: Mon Dec 11 15:02:52 CET 2017
Benutzer: Praktikum-Pc1
Dark-Spektrum vorhanden: Ja
Referenz-Spektrum vorhanden: Nein
Zahl der probierten Teilspektren: 1
Spektrometer: USB4H10187
Integrationszeit (usec): 150000 (USB4H10187)
Spektren Durchschnitt berechnet: 4 (USB4H10187)
Boxcar Glättung: 0 (USB4H10187)
Dunkelstromkorrektur: Nein (USB4H10187)
Puls/Lampe aktiviert: Nein (USB4H10187)
Correct for Detector Non-linearity: Nein (USB4H10187)
Streulichtkorrektur: Nein (USB4H10187)
Anzahl Pixel in verarbeitetem Spektrum: 3648
>>>>>Begin Processed Spectral Data<<<<<
176,80	5,12
177,02	5,12
177,24	5,12
177,46	22,53
177,68	29,18
177,91	119,81
178,13	164,35
178,35	118,78
178,57	82,94
178,79	180,22
179,02	229,88
179,24	120,32
179,46	154,11
179,68	115,20
179,90	81,41
180,12	197,12
180,35	140,29
180,57	85,50
180,79	197,63
181,01	200,19
181,23	178,69
181,46	251,90
181,68	244,22
181,90	227,32
182,12	260,09
182,34	305,15
182,56	216,06
182,79	190,46
183,01	209,40
183,23	163,84
183,45	257,53
183,67	148,48
183,89	280,06
184,12	245,76
184,34	222,72
184,56	307,71
184,78	171,52
185,00	311,29
185,22	186,88
185,45	182,27
185,67	269,31
185,89	253,44
186,11	230,40
186,33	240,64
186,55	227,32
186,77	238,59
187,00	252,41
187,22	290,30
187,44	194,56
187,66	188,41
187,88	187,90
188,10	318,46
188,32	176,64
188,55	268,80
188,77	259,07
188,99	172,54
189,21	238,08
189,43	219,13
189,65	143,87
189,87	260,09
190,10	326,14
190,32	286,20
190,54	195,07
190,76	276,48
190,98	221,69
191,20	308,22
191,42	242,68
191,64	240,64
191,87	226,81
192,09	285,18
192,31	203,26
192,53	242,17
192,75	248,32
192,97	227,84
193,19	246,78
193,41	221,69
193,64	271,36
193,86	215,55
194,08	252,92
194,30	172,03
194,52	270,33
194,74	296,44
194,96	158,21
195,18	242,17
195,40	208,89
195,63	213,50
195,85	175,61
196,07	150,01
196,29	239,10
196,51	279,04
196,73	260,09
196,95	243,20
197,17	182,27
197,39	214,01
197,61	258,04
197,84	217,60
198,06	227,32
198,28	202,75
198,50	105,98
198,72	231,42
198,94	277,50
199,16	244,73
199,38	342,52
199,60	169,47
199,82	184,32
200,04	244,73
200,26	215,04
200,49	203,77
200,71	166,40
200,93	265,21
201,15	200,19
201,37	196,09
201,59	209,40
201,81	224,76
202,03	285,18
202,25	165,37
202,47	216,57
202,69	221,18
202,91	252,92
203,13	190,46
203,35	240,64
203,58	177,15
203,80	295,42
204,02	202,75
204,24	128,00
204,46	239,10
204,68	269,31
204,90	215,04
205,12	234,49
205,34	250,88
205,56	248,32
205,78	282,11
206,00	211,45
206,22	236,54
206,44	232,44
206,66	148,48
206,88	261,63
207,10	168,45
207,32	333,82
207,54	258,04
207,76	228,86
207,99	236,54
208,21	233,98
208,43	309,24
208,65	144,38
208,87	267,26
209,09	243,20
209,31	244,73
209,53	150,01
209,75	322,56
209,97	262,14
210,19	193,02
210,41	274,94
210,63	186,88
210,85	227,84
211,07	280,57
211,29	210,43
211,51	286,72
211,73	322,56
211,95	272,89
212,17	269,82
212,39	260,60
212,61	271,36
212,83	199,68
213,05	287,23
213,27	300,03
213,49	231,42
213,71	195,07
213,93	244,73
214,15	273,40
214,37	284,67
214,59	258,56
214,81	212,48
215,03	219,13
215,25	239,10
215,47	264,70
215,69	236,54
215,91	254,97
216,13	252,41
216,35	266,24
216,57	188,93
216,79	257,02
217,01	263,16
217,23	235,00
217,45	246,78
217,67	295,42
217,89	326,65
218,11	230,40
218,33	222,20
218,55	223,23
218,77	253,44
218,99	234,49
219,21	269,31
219,43	186,88
219,65	307,71
219,87	329,72
220,09	290,30
220,31	249,34
220,53	282,62
220,75	164,35
220,97	183,29
221,19	135,17
221,41	181,25
221,63	201,72
221,85	283,64
222,06	248,83
222,28	283,13
222,50	177,15
222,72	224,25
222,94	205,31
223,16	242,68
223,38	290,30
223,60	169,47
223,82	227,32
224,04	262,65
224,26	241,66
224,48	228,35
224,70	282,62
224,92	221,69
225,14	261,63
225,36	313,85
225,58	216,57
225,80	265,72
226,02	264,70
226,24	233,98
226,45	211,45
226,67	209,40
226,89	136,70
227,11	238,08
227,33	261,12
227,55	166,91
227,77	230,40
227,99	208,38
228,21	194,05
228,43	261,63
228,65	243,71
228,87	251,39
229,09	134,14
229,31	197,63
229,52	222,72
229,74	157,69
229,96	309,24
230,18	226,30
230,40	252,92
230,62	226,81
230,84	320,51
231,06	131,07
231,28	221,69
231,50	205,82
231,72	205,82
231,94	177,66
232,15	219,64
232,37	195,07
232,59	176,13
232,81	305,66
233,03	220,67
233,25	257,53
233,47	192,51
233,69	215,04
233,91	188,41
234,13	177,15
234,34	197,12
234,56	219,64
234,78	276,99
235,00	128,00
235,22	251,90
235,44	182,78
235,66	191,49
235,88	180,73
236,10	284,16
236,31	246,78
236,53	262,65
236,75	238,59
236,97	232,96
237,19	269,31
237,41	238,08
237,63	303,61
237,85	240,12
238,07	236,03
238,28	194,05
238,50	232,44
238,72	228,86
238,94	268,28
239,16	200,70
239,38	213,50
239,60	275,96
239,81	183,29
240,03	227,32
240,25	195,07
240,47	284,67
240,69	223,74
240,91	301,05
241,13	372,73
241,34	266,75
241,56	246,78
241,78	272,89
242,00	197,63
242,22	188,41
242,44	320,51
242,66	211,45
242,87	180,73
243,09	264,19
243,31	203,77
243,53	165,37
243,75	243,20
243,97	228,35
244,19	193,53
244,40	252,92
244,62	220,16
244,84	337,91
245,06	239,10
245,28	217,08
245,50	263,68
245,71	279,04
245,93	201,21
246,15	243,20
246,37	247,29
246,59	331,26
246,81	231,42
247,02	180,73
247,24	273,40
247,46	243,20
247,68	306,17
247,90	279,04
248,11	247,80
248,33	219,13
248,55	252,92
248,77	160,77
248,99	248,83
249,21	145,92
249,42	223,23
249,64	282,62
249,86	241,15
250,08	230,91
250,30	268,80
250,51	250,36
250,73	130,05
250,95	197,63
251,17	307,20
251,39	232,44
251,60	314,36
251,82	367,10
252,04	277,50
252,26	203,77
252,48	229,37
252,69	294,40
252,91	277,50
253,13	247,29
253,35	311,29
253,57	229,88
253,78	231,93
254,00	251,39
254,22	232,44
254,44	216,06
254,65	212,48
254,87	231,42
255,09	241,66
255,31	272,38
255,53	211,96
255,74	293,37
255,96	243,71
256,18	264,70
256,40	247,80
256,61	198,14
256,83	356,86
257,05	247,29
257,27	330,23
257,48	230,40
257,70	264,19
257,92	267,77
258,14	279,04
258,36	204,28
258,57	308,22
258,79	256,51
259,01	242,68
259,23	236,03
259,44	190,46
259,66	252,92
259,88	313,34
260,10	249,85
260,31	261,63
260,53	294,91
260,75	207,36
260,97	265,72
261,18	250,36
261,40	326,65
261,62	214,01
261,84	272,89
262,05	238,59
262,27	297,47
262,49	230,40
262,71	281,60
262,92	276,48
263,14	203,77
263,36	228,86
263,57	289,28
263,79	286,72
264,01	266,24
264,23	217,08
264,44	261,63
264,66	278,01
264,88	319,48
265,10	196,61
265,31	308,73
265,53	231,93
265,75	280,06
265,96	254,97
266,18	329,72
266,40	334,33
266,62	290,30
266,83	296,96
267,05	223,74
267,27	251,90
267,48	387,07
267,70	181,25
267,92	288,76
268,14	272,38
268,35	289,28
268,57	297,47
268,79	368,12
269,00	286,20
269,22	311,29
269,44	251,90
269,65	232,96
269,87	235,00
270,09	293,88
270,31	250,88
270,52	309,24
270,74	285,69
270,96	184,83
271,17	293,37
271,39	215,04
271,61	313,85
271,82	306,68
272,04	282,11
272,26	230,91
272,47	292,86
272,69	226,81
272,91	192,51
273,12	246,78
273,34	288,25
273,56	233,47
273,77	210,94
273,99	284,67
274,21	294,91
274,42	205,31
274,64	269,82
274,86	214,01
275,08	238,08
275,29	182,27
275,51	286,72
275,72	225,79
275,94	306,68
276,16	251,90
276,37	251,90
276,59	198,65
276,81	211,96
277,02	269,82
277,24	307,20
277,46	248,83
277,67	196,61
277,89	287,23
278,11	289,28
278,32	251,39
278,54	190,46
278,76	357,88
278,97	302,59
279,19	273,40
279,41	261,63
279,62	258,56
279,84	288,76
280,05	240,64
280,27	257,02
280,49	221,69
280,70	286,20
280,92	254,46
281,14	282,62
281,35	116,22
281,57	251,39
281,79	230,91
282,00	306,68
282,22	350,71
282,43	284,67
282,65	250,36
282,87	240,12
283,08	256,51
283,30	317,95
283,52	366,59
283,73	225,79
283,95	256,00
284,16	215,55
284,38	265,72
284,60	350,71
284,81	282,62
285,03	281,60
285,24	268,80
285,46	278,01
285,68	232,96
285,89	283,64
286,11	215,55
286,32	318,46
286,54	295,42
286,76	261,63
286,97	306,68
287,19	269,82
287,40	321,02
287,62	303,61
287,84	289,79
288,05	266,75
288,27	232,96
288,48	250,88
288,70	263,16
288,92	258,56
289,13	230,40
289,35	273,40
289,56	270,33
289,78	263,68
289,99	339,96
290,21	259,07
290,43	308,22
290,64	206,84
290,86	304,12
291,07	268,28
291,29	322,04
291,51	276,48
291,72	332,79
291,94	281,08
292,15	270,33
292,37	269,82
292,58	262,65
292,80	324,60
293,01	263,68
293,23	335,35
293,45	287,23
293,66	296,96
293,88	352,76
294,09	148,99
294,31	274,43
294,52	244,22
294,74	262,65
294,96	300,03
295,17	264,19
295,39	350,20
295,60	298,49
295,82	253,44
296,03	273,92
296,25	258,56
296,46	296,44
296,68	258,56
296,89	239,10
297,11	199,16
297,32	331,77
297,54	333,31
297,76	261,63
297,97	263,16
298,19	294,40
298,40	336,89
298,62	307,20
298,83	316,41
299,05	328,19
299,26	241,66
299,48	269,82
299,69	327,16
299,91	192,51
300,12	340,99
300,34	329,72
300,55	319,48
300,77	372,73
300,98	184,83
301,20	283,13
301,41	223,23
301,63	285,18
301,84	280,57
302,06	316,41
302,28	218,62
302,49	290,30
302,71	403,45
302,92	161,28
303,14	304,64
303,35	397,31
303,57	225,79
303,78	344,06
304,00	346,62
304,21	240,64
304,43	286,72
304,64	325,12
304,86	265,21
305,07	322,56
305,29	323,58
305,50	267,26
305,71	328,70
305,93	337,40
306,14	385,53
306,36	349,69
306,57	331,77
306,79	354,30
307,00	260,60
307,22	339,96
307,43	263,16
307,65	363,00
307,86	350,20
308,08	332,28
308,29	350,20
308,51	262,65
308,72	374,27
308,94	324,09
309,15	361,47
309,37	327,16
309,58	271,36
309,80	334,33
310,01	376,31
310,22	325,63
310,44	311,29
310,65	328,70
310,87	357,37
311,08	433,15
311,30	273,40
311,51	416,76
311,73	373,75
311,94	335,35
312,16	294,91
312,37	362,49
312,58	400,89
312,80	315,39
313,01	335,35
313,23	355,32
313,44	349,18
313,66	341,50
313,87	429,05
314,09	266,24
314,30	367,61
314,51	358,39
314,73	299,00
314,94	390,65
315,16	382,46
315,37	439,29
315,59	355,32
315,80	361,98
316,01	373,75
316,23	417,79
316,44	408,06
316,66	393,21
316,87	436,22
317,09	419,83
317,30	401,40
317,51	407,55
317,73	426,49
317,94	331,77
318,16	449,02
318,37	367,10
318,58	303,61
318,80	444,92
319,01	381,95
319,23	466,42
319,44	330,75
319,66	381,43
319,87	420,86
320,08	450,04
320,30	451,58
320,51	418,30
320,73	389,11
320,94	470,52
321,15	396,79
321,37	442,36
321,58	439,80
321,80	514,55
322,01	427,00
322,22	419,83
322,44	446,97
322,65	485,88
322,86	425,47
323,08	505,85
323,29	480,76
323,51	477,69
323,72	462,84
323,93	485,88
324,15	471,54
324,36	436,73
324,58	462,84
324,79	514,55
325,00	511,48
325,22	466,42
325,43	485,37
325,64	459,26
325,86	484,34
326,07	443,90
326,28	523,26
326,50	501,75
326,71	470,01
326,93	428,03
327,14	511,99
327,35	423,93
327,57	518,14
327,78	485,88
327,99	588,28
328,21	505,85
328,42	566,26
328,63	596,47
328,85	518,14
329,06	443,90
329,27	524,79
329,49	522,23
329,70	476,15
329,91	584,70
330,13	510,97
330,34	609,78
330,56	451,58
330,77	565,24
330,98	569,85
331,20	548,86
331,41	631,80
331,62	583,16
331,84	566,26
332,05	548,86
332,26	685,56
332,48	635,38
332,69	617,97
332,90	589,82
333,11	572,41
333,33	543,22
333,54	624,12
333,75	559,10
333,97	516,60
334,18	591,86
334,39	616,95
334,61	644,60
334,82	695,80
335,03	531,96
335,25	587,26
335,46	603,64
335,67	626,68
335,89	547,32
336,10	571,90
336,31	615,41
336,53	585,72
336,74	682,49
336,95	727,54
337,16	622,07
337,38	665,59
337,59	791,54
337,80	623,61
338,02	653,81
338,23	774,64
338,44	658,93
338,65	692,73
338,87	721,40
339,08	712,69
339,29	770,55
339,51	724,47
339,72	670,71
339,93	802,80
340,14	728,05
340,36	722,42
340,57	693,75
340,78	685,56
341,00	664,57
341,21	768,50
341,42	868,85
341,63	741,36
341,85	721,91
342,06	738,29
342,27	766,45
342,49	816,63
342,70	781,30
342,91	835,57
343,12	809,97
343,34	873,46
343,55	781,30
343,76	893,43
343,97	861,68
344,19	867,83
344,40	812,53
344,61	867,31
344,82	829,43
345,04	720,37
345,25	842,23
345,46	772,60
345,67	852,47
345,89	867,83
346,10	869,36
346,31	841,72
346,52	810,48
346,74	788,98
346,95	862,71
347,16	869,87
347,37	810,48
347,59	851,44
347,80	857,07
348,01	936,43
348,22	943,60
348,43	904,18
348,65	846,32
348,86	941,04
349,07	1004,02
349,28	847,35
349,50	915,44
349,71	956,91
349,92	899,06
350,13	901,11
350,34	912,88
350,56	899,06
350,77	1004,53
350,98	961,52
351,19	914,93
351,41	1065,46
351,62	1073,65
351,83	873,46
352,04	1019,89
352,25	1011,18
352,47	1053,17
352,68	1154,54
352,89	934,39
353,10	1048,56
353,31	1073,65
353,53	1029,62
353,74	1016,82
353,95	1063,41
354,16	1086,45
354,37	1084,91
354,59	1077,74
354,80	1065,97
355,01	1041,90
355,22	1026,54
355,43	1028,59
355,65	1001,97
355,86	1174,00
356,07	1116,65
356,28	1062,38
356,49	1038,83
356,70	1136,11
356,92	1061,87
357,13	1060,85
357,34	1106,42
357,55	1160,69
357,76	1165,81
357,98	1038,83
358,19	1148,91
358,40	1129,45
358,61	1130,48
358,82	1112,05
359,03	1175,53
359,25	1208,81
359,46	1294,32
359,67	1168,37
359,88	1172,97
360,09	1202,16
360,30	1198,06
360,51	1218,54
360,73	1285,61
360,94	1199,60
361,15	1206,77
361,36	1153,52
361,57	1267,18
361,78	1168,88
362,00	1230,32
362,21	1259,50
362,42	1375,72
362,63	1223,66
362,84	1279,47
363,05	1224,69
363,26	1265,13
363,48	1291,24
363,69	1303,53
363,90	1335,28
364,11	1258,99
364,32	1282,54
364,53	1330,67
364,74	1284,08
364,95	1281,00
365,17	1310,70
365,38	1400,30
365,59	1457,13
365,80	1432,55
366,01	1329,64
366,22	1346,03
366,43	1296,88
366,64	1409,51
366,86	1412,07
367,07	1417,71
367,28	1504,23
367,49	1454,57
367,70	1532,39
367,91	1449,45
368,12	1352,17
368,33	1409,00
368,54	1481,71
368,76	1463,27
368,97	1447,91
369,18	1455,59
369,39	1504,23
369,60	1453,03
369,81	1513,96
370,02	1547,24
370,23	1502,19
370,44	1476,59
370,65	1469,93
370,87	1510,89
371,08	1607,66
371,29	1569,26
371,50	1561,58
371,71	1641,45
371,92	1607,14
372,13	1613,80
372,34	1568,74
372,55	1569,26
372,76	1658,34
372,97	1616,36
373,18	1680,87
373,40	1639,40
373,61	1610,22
373,82	1593,32
374,03	1657,32
374,24	1693,16
374,45	1630,18
374,66	1760,74
374,87	1717,73
375,08	1699,30
375,29	1675,24
375,50	1713,13
375,71	1683,94
375,92	1764,33
376,13	1679,85
376,34	1745,38
376,56	1788,39
376,77	1766,89
376,98	1741,29
377,19	1802,21
377,40	1772,52
377,61	1834,47
377,82	1753,57
378,03	1845,73
378,24	1781,22
378,45	1793,00
378,66	1776,10
378,87	1751,01
379,08	1846,76
379,29	1847,27
379,50	1858,02
379,71	1760,23
379,92	1818,08
380,13	1765,86
380,34	1784,29
380,55	1883,62
380,76	1883,62
380,97	1953,25
381,18	1865,19
381,39	1870,31
381,60	1982,95
381,81	1819,11
382,02	1936,87
382,24	1909,73
382,45	1854,95
382,66	1944,55
382,87	2007,01
383,08	1972,71
383,29	1927,14
383,50	2049,50
383,71	2005,47
383,92	1991,65
384,13	1908,71
384,34	2071,01
384,55	1941,47
384,76	2030,56
384,97	2042,85
385,18	2037,22
385,39	2015,71
385,60	2052,06
385,81	2098,14
386,02	2145,76
386,23	2143,20
386,44	2146,27
386,65	2069,47
386,86	2105,82
387,07	2191,84
387,28	2187,74
387,49	2133,98
387,70	2157,54
387,91	2193,89
388,12	2182,62
388,32	2196,45
388,53	2195,42
388,74	2227,17
388,95	2097,63
389,16	2201,57
389,37	2207,20
389,58	2235,36
389,79	2304,99
390,00	2263,01
390,21	2297,82
390,42	2308,57
390,63	2322,91
390,84	2292,70
391,05	2390,49
391,26	2484,19
391,47	2366,43
391,68	2363,36
391,89	2395,61
392,10	2471,90
392,31	2377,69
392,52	2412,51
392,73	2331,10
392,94	2451,93
393,15	2380,76
393,36	2414,04
393,57	2432,47
393,78	2464,73
393,98	2577,37
394,19	2456,03
394,40	2482,65
394,61	2496,47
394,82	2592,73
395,03	2551,77
395,24	2607,58
395,45	2423,26
395,66	2497,50
395,87	2401,24
396,08	2564,57
396,29	2632,15
396,50	2591,19
396,71	2545,63
396,92	2506,20
397,12	2568,15
397,33	2551,77
397,54	2589,14
397,75	2633,18
397,96	2614,23
398,17	2639,83
398,38	2595,80
398,59	2784,21
398,80	2545,63
399,01	2683,35
399,22	2695,13
399,43	2664,41
399,63	2741,72
399,84	2781,14
400,05	2789,85
400,26	2697,17
400,47	2763,22
400,68	2780,63
400,89	2781,14
401,10	2778,58
401,31	2776,53
401,52	2670,04
401,72	2842,07
401,93	2742,74
402,14	2811,35
402,35	2887,12
402,56	2932,18
402,77	2770,39
402,98	2872,28
403,19	2904,02
403,40	2927,06
403,60	2935,76
403,81	2979,79
404,02	2902,48
404,23	2991,57
404,44	3045,84
404,65	3076,56
404,86	3042,26
405,07	2983,89
405,27	2931,67
405,48	3044,31
405,69	2965,46
405,90	3112,91
406,11	3036,63
406,32	3062,74
406,53	3158,48
406,74	3070,93
406,94	3025,87
407,15	3129,30
407,36	3117,52
407,57	3165,14
407,78	3230,16
407,99	3257,29
408,20	3187,66
408,40	3285,97
408,61	3239,89
408,82	3270,61
409,03	3305,93
409,24	3283,92
409,45	3255,76
409,65	3365,84
409,86	3425,23
410,07	3246,03
410,28	3362,76
410,49	3400,14
410,70	3452,36
410,90	3509,71
411,11	3461,58
411,32	3383,76
411,53	3487,69
411,74	3466,19
411,95	3615,69
412,15	3519,43
412,36	3493,32
412,57	3492,30
412,78	3551,69
412,99	3573,71
413,20	3553,23
413,40	3546,57
413,61	3538,89
413,82	3721,67
414,03	3592,14
414,24	3644,87
414,44	3676,62
414,65	3619,27
414,86	3651,53
415,07	3793,35
415,28	3768,77
415,48	3715,53
415,69	3668,42
415,90	3790,79
416,11	3780,04
416,32	3772,36
416,53	3705,29
416,73	3925,44
416,94	3829,19
417,15	3901,38
417,36	3886,53
417,56	3836,36
417,77	3768,77
417,98	3856,33
418,19	3958,72
418,40	3984,32
418,60	3949,51
418,81	3941,83
419,02	3907,01
419,23	4006,34
419,44	3794,37
419,64	3921,35
419,85	3995,08
420,06	3933,64
420,27	4041,67
420,47	3947,46
420,68	4096,45
420,89	4007,87
421,10	4061,12
421,30	4097,99
421,51	4202,94
421,72	4144,58
421,93	4087,75
422,14	4093,38
422,34	4200,38
422,55	4069,31
422,76	4125,63
422,97	4146,11
423,17	4255,17
423,38	4240,32
423,59	4144,58
423,80	4195,78
424,00	4211,14
424,21	4214,21
424,42	4179,90
424,63	4282,81
424,83	4249,54
425,04	4464,06
425,25	4252,61
425,46	4441,53
425,66	4403,13
425,87	4434,88
426,08	4236,22
426,28	4535,23
426,49	4389,82
426,70	4500,41
426,91	4521,40
427,11	4502,97
427,32	4505,02
427,53	4418,49
427,74	4558,27
427,94	4444,09
428,15	4616,12
428,36	4631,99
428,56	4634,55
428,77	4658,10
428,98	4644,28
429,19	4652,47
429,39	4626,36
429,60	4704,18
429,81	4690,36
430,01	4728,76
430,22	4661,69
430,43	4745,66
430,64	4657,08
430,84	4664,76
431,05	4874,17
431,26	4851,13
431,46	4903,86
431,67	4805,56
431,88	4960,69
432,08	4937,65
432,29	4959,16
432,50	4949,43
432,70	5010,36
432,91	5051,31
433,12	5092,27
433,33	5082,55
433,53	5059,51
433,74	5239,22
433,95	5171,63
434,15	5066,67
434,36	5137,33
434,57	5112,75
434,77	5091,25
434,98	5219,25
435,19	5162,42
435,39	5177,26
435,60	5272,50
435,81	5365,68
436,01	5322,67
436,22	5424,56
436,43	5440,43
436,63	5632,94
436,84	5526,96
437,05	5459,88
437,25	5366,70
437,46	5572,01
437,67	5499,82
437,87	5506,99
438,08	5463,47
438,29	5601,71
438,49	5604,27
438,70	5560,75
438,91	5685,16
439,11	5818,79
439,32	5898,15
439,52	5707,18
439,73	5667,75
439,94	5659,56
440,14	5802,41
440,35	5774,76
440,56	5739,43
440,76	5747,11
440,97	5862,82
441,18	5839,78
441,38	5763,50
441,59	5938,09
441,79	5812,14
442,00	6027,68
442,21	6001,57
442,41	6001,57
442,62	5866,92
442,83	5971,88
443,03	5907,88
443,24	5973,41
443,44	6124,45
443,65	6116,77
443,86	5978,53
444,06	6039,46
444,27	6242,72
444,48	6161,83
444,68	6181,28
444,89	6222,24
445,09	6309,28
445,30	6202,27
445,51	6296,99
445,71	6243,23
445,92	6265,76
446,12	6347,17
446,33	6454,69
446,54	6478,75
446,74	6392,73
446,95	6259,62
447,15	6487,96
447,36	6343,58
447,57	6215,59
447,77	6365,09
447,98	6479,26
448,18	6320,03
448,39	6244,26
448,59	6435,23
448,80	6497,69
449,01	6394,27
449,21	6445,98
449,42	6497,18
449,62	6675,87
449,83	6485,92
450,04	6568,86
450,24	6629,79
450,45	6636,95
450,65	6487,45
450,86	6676,38
451,06	6658,46
451,27	6800,28
451,47	6463,39
451,68	6573,98
451,89	6608,80
452,09	6588,32
452,30	6658,46
452,50	6749,08
452,71	6958,49
452,91	6758,30
453,12	6819,74
453,33	6860,70
453,53	6699,93
453,74	6989,21
453,94	6932,37
454,15	6749,08
454,35	6807,96
454,56	6959,51
454,76	7162,26
454,97	6878,62
455,17	7068,05
455,38	7102,36
455,58	7195,03
455,79	7038,87
456,00	7155,09
456,20	7119,25
456,41	7229,84
456,61	6993,30
456,82	7034,26
457,02	7172,50
457,23	7244,18
457,43	7306,13
457,64	7168,91
457,84	7147,41
458,05	7262,61
458,25	7195,54
458,46	7332,24
458,66	7394,19
458,87	7322,00
459,07	7565,71
459,28	7521,68
459,48	7483,79
459,69	7537,55
459,89	7545,74
460,10	7636,36
460,30	7833,99
460,51	7622,03
460,71	7747,47
460,92	7787,40
461,12	7884,68
461,33	7931,27
461,53	7813,00
461,74	7751,56
461,94	7828,36
462,15	8052,10
462,35	8078,21
462,56	7969,67
462,76	8026,50
462,97	8240,00
463,17	8123,78
463,38	8201,09
463,58	8226,69
463,79	8462,21
463,99	8271,75
464,20	8475,52
464,40	8487,81
464,61	8385,41
464,81	8717,69
465,02	8577,41
465,22	8622,46
465,43	8704,38
465,63	8742,78
465,83	8611,20
466,04	9002,87
466,24	8705,40
466,45	9260,91
466,65	8953,21
466,86	9016,18
467,06	9035,13
467,27	9145,72
467,47	9354,61
467,68	9338,23
467,88	9211,76
468,08	9379,70
468,29	9428,85
468,49	9612,14
468,70	9728,36
468,90	9737,58
469,11	9873,77
469,31	9979,24
469,52	9885,55
469,72	10493,79
469,92	10031,97
470,13	10282,85
470,33	10129,25
470,54	10172,77
470,74	10371,94
470,95	10397,03
471,15	10677,09
471,35	10434,40
471,56	10661,21
471,76	10850,14
471,97	10861,91
472,17	10896,73
472,38	10986,84
472,58	11108,69
472,78	11325,27
472,99	11292,50
473,19	11374,93
473,40	11575,63
473,60	11322,71
473,80	11763,53
474,01	11851,60
474,21	11930,44
474,42	12063,56
474,62	12265,80
474,83	12024,65
475,03	12407,11
475,23	12428,10
475,44	12668,22
475,64	12790,08
475,85	12627,78
476,05	12657,47
476,25	13115,19
476,46	13181,75
476,66	13133,11
476,86	13228,34
477,07	13385,52
477,27	13761,84
477,48	13554,99
477,68	13609,78
477,88	14059,31
478,09	13744,43
478,29	14001,45
478,50	14297,89
478,70	14162,22
478,90	14255,40
479,11	14435,62
479,31	14635,30
479,51	14821,15
479,72	14780,19
479,92	14828,83
480,12	14972,70
480,33	15278,87
480,53	15263,00
480,74	15459,09
480,94	15471,38
481,14	15778,58
481,35	15863,57
481,55	15894,29
481,75	15889,68
481,96	16119,56
482,16	16030,99
482,36	16283,91
482,57	16540,93
482,77	16486,15
482,97	16714,50
483,18	16913,15
483,38	16782,59
483,58	16976,12
483,79	16880,89
483,99	17189,11
484,19	17333,50
484,40	17345,78
484,60	17321,21
484,80	17687,79
485,01	17861,36
485,21	17825,01
485,41	17835,76
485,62	18070,76
485,82	18088,68
486,02	18370,28
486,23	18349,29
486,43	18500,84
486,63	18637,03
486,84	18978,01
487,04	18683,62
487,24	19105,50
487,45	18758,88
487,65	19403,48
487,85	18945,25
488,06	19545,81
488,26	19261,66
488,46	19686,10
488,67	19609,81
488,87	19791,57
489,07	19869,39
489,27	19968,21
489,48	20093,13
489,68	19943,63
489,88	20269,26
490,09	20361,93
490,29	20329,16
490,49	20543,17
490,70	20738,24
490,90	20698,82
491,10	20501,70
491,30	20980,42
491,51	20821,70
491,71	21168,32
491,91	21015,23
492,12	21273,28
492,32	21097,15
492,52	21348,54
492,72	21319,87
492,93	21482,17
493,13	21413,05
493,33	21734,07
493,53	21839,54
493,74	21884,59
493,94	22095,02
494,14	21809,84
494,34	21988,02
494,55	22136,49
494,75	22244,52
494,95	22303,92
495,16	22500,01
495,36	22480,04
495,56	22509,22
495,76	22613,67
495,97	22581,93
496,17	22625,45
496,37	22590,63
496,57	22970,53
496,78	22941,86
496,98	22988,45
497,18	22897,31
497,38	22941,35
497,59	23140,51
497,79	22912,67
497,99	23199,39
498,19	23277,72
498,39	23478,94
498,60	23393,95
498,80	23471,26
499,00	23592,60
499,20	23649,94
499,41	23694,49
499,61	23534,74
499,81	23669,91
500,01	23729,81
500,22	23860,88
500,42	23703,19
500,62	23771,29
500,82	24067,22
501,02	24137,87
501,23	24171,66
501,43	24116,37
501,63	23893,14
501,83	24220,81
502,03	24077,46
502,24	24227,47
502,44	24281,74
502,64	24339,60
502,84	24357,52
503,05	24447,11
503,25	24548,49
503,45	24409,74
503,65	24638,09
503,85	24609,42
504,06	24569,99
504,26	24598,66
504,46	24780,42
504,66	24776,33
504,86	25005,70
505,06	24803,97
505,27	24748,68
505,47	25030,27
505,67	25223,81
505,87	25125,50
506,07	25264,77
506,28	25459,32
506,48	25214,59
506,68	25578,62
506,88	25292,41
507,08	25532,54
507,28	25507,45
507,49	25856,12
507,69	25661,56
507,89	25465,98
508,09	25899,64
508,29	25994,87
508,49	25843,83
508,70	25952,37
508,90	26243,70
509,10	26122,35
509,30	25882,23
509,50	26071,67
509,70	26209,39
509,91	26258,54
510,11	26221,68
510,31	26337,90
510,51	26239,60
510,71	26460,78
510,91	26528,36
511,11	26669,67
511,32	26572,91
511,52	26657,39
511,72	26858,09
511,92	26924,13
512,12	26964,07
512,32	26604,14
512,52	27015,78
512,73	27340,38
512,93	27260,51
513,13	27182,18
513,33	27407,97
513,53	27524,70
513,73	27518,56
513,93	27664,47
514,13	27351,65
514,34	27770,97
514,54	27778,14
514,74	27867,22
514,94	28075,60
515,14	27967,57
515,34	27968,09
515,54	28134,99
515,74	28399,18
515,94	28094,55
516,15	28503,12
516,35	28597,84
516,55	28522,06
516,75	28650,06
516,95	28836,94
517,15	28750,41
517,35	28658,76
517,55	28928,58
517,75	29111,88
517,95	29124,68
518,16	29341,25
518,36	29115,97
518,56	29198,91
518,76	29520,96
518,96	29575,74
519,16	29541,44
519,36	29622,33
519,56	29725,24
519,76	29941,30
519,96	29680,19
520,16	30111,80
520,37	29888,57
520,57	30094,90
520,77	30395,44
520,97	30296,63
521,17	30148,15
521,37	30440,50
521,57	30567,98
521,77	30342,19
521,97	30441,52
522,17	30418,99
522,37	30908,97
522,57	30735,92
522,77	30950,95
522,97	31174,69
523,17	31019,05
523,37	30861,35
523,58	31101,48
523,78	31045,67
523,98	31609,89
524,18	31151,65
524,38	31472,67
524,58	31485,47
524,78	31423,52
524,98	31514,66
525,18	31400,99
525,38	31564,32
525,58	31597,60
525,78	31972,38
525,98	31924,25
526,18	32039,96
526,38	31962,65
526,58	32156,18
526,78	31921,69
526,98	32136,21
527,18	32033,30
527,38	32167,45
527,58	32418,83
527,78	32418,83
527,98	32366,10
528,18	32708,11
528,38	32589,33
528,58	32543,76
528,78	32790,54
528,98	32837,64
529,18	32587,79
529,38	32733,71
529,58	32744,97
529,78	32971,27
529,98	32553,49
530,18	33114,63
530,38	33041,93
530,58	33139,72
530,78	33486,85
530,98	33022,47
531,18	33371,65
531,38	33292,29
531,58	33473,54
531,78	33293,83
531,98	33318,40
532,18	33292,29
532,38	33701,89
532,58	33524,74
532,78	33737,21
532,98	33905,66
533,18	33803,26
533,38	33616,38
533,58	33956,86
533,78	33856,00
533,98	34018,81
534,18	33790,97
534,38	34010,11
534,58	34348,53
534,78	33870,84
534,98	34094,07
535,18	34211,83
535,38	34570,22
535,58	34367,99
535,78	34253,81
535,98	34273,78
536,18	34442,23
536,38	34148,85
536,58	34655,22
536,78	34341,88
536,98	34296,82
537,18	34813,93
537,38	34523,12
537,58	34423,28
537,78	34913,26
537,98	34775,02
538,17	34720,24
538,37	34685,93
538,57	34860,52
538,77	34845,68
538,97	34989,55
539,17	34865,64
539,37	34990,57
539,57	35002,86
539,77	34902,00
539,97	34835,95
540,17	34954,73
540,37	35003,88
540,57	34966,51
540,77	35314,66
540,97	35200,49
541,16	35090,92
541,36	35224,04
541,56	35057,64
541,76	35175,91
541,96	35515,87
542,16	35087,85
542,36	35318,25
542,56	35106,28
542,76	35831,77
542,96	35446,24
543,16	35433,96
543,36	35274,21
543,55	35426,79
543,75	35560,93
543,95	35610,08
544,15	35422,18
544,35	35401,70
544,55	35809,25
544,75	35597,28
544,95	35951,58
545,15	35426,28
545,35	35809,25
545,54	35659,23
545,74	35957,21
545,94	35447,78
546,14	36051,42
546,34	35963,36
546,54	35849,18
546,74	36060,63
546,94	35956,19
547,14	35885,02
547,33	35943,90
547,53	35768,80
547,73	36135,90
547,93	36022,23
548,13	35870,17
548,33	35881,44
548,53	36170,71
548,72	35923,93
548,92	36211,67
549,12	36222,42
549,32	36183,51
549,52	36273,62
549,72	36293,08
549,92	36339,16
550,12	35961,31
550,31	36732,88
550,51	35865,05
550,71	36307,41
550,91	36362,20
551,11	36236,25
551,31	36384,72
551,50	36431,32
551,70	36359,64
551,90	36838,86
552,10	36648,40
552,30	36538,83
552,50	36570,58
552,70	36722,64
552,89	36708,82
553,09	36922,83
553,29	36794,83
553,49	36853,71
553,69	37137,87
553,88	36821,45
554,08	36645,33
554,28	36920,27
554,48	36734,93
554,68	37038,03
554,88	36889,04
555,07	37134,79
555,27	36968,40
555,47	36988,36
555,67	37022,67
555,87	37229,00
556,06	36787,66
556,26	37259,21
556,46	37270,98
556,66	37171,14
556,86	37103,56
557,06	37208,52
557,25	37332,93
557,45	36982,22
557,65	37588,93
557,85	37600,71
558,05	37702,08
558,24	37602,75
558,44	37681,60
558,64	37983,16
558,84	37311,94
559,03	37553,09
559,23	37633,47
559,43	37884,35
559,63	37760,96
559,83	37567,43
560,02	37623,75
560,22	37803,97
560,42	38087,10
560,62	38132,15
560,82	37613,51
561,01	37855,17
561,21	37761,47
561,41	38067,13
561,61	38272,95
561,80	38057,92
562,00	38065,60
562,20	38174,14
562,40	38369,72
562,59	38152,63
562,79	38040,51
562,99	38133,69
563,19	38445,49
563,38	38106,04
563,58	38378,42
563,78	38613,94
563,98	38525,36
564,17	38456,25
564,37	38423,48
564,57	38794,16
564,77	38510,00
564,96	38873,01
565,16	38731,70
565,36	38975,92
565,56	38825,39
565,75	38870,45
565,95	38747,57
566,15	38926,25
566,35	38934,45
566,54	38868,91
566,74	39186,86
566,94	39143,85
567,14	39003,05
567,33	39297,45
567,53	39051,69
567,73	39258,02
567,92	39118,25
568,12	39437,73
568,32	39252,91
568,52	39424,93
568,71	39002,54
568,91	39507,88
569,11	39689,63
569,30	39243,69
569,50	39503,78
569,70	39544,23
569,90	39422,37
570,09	39736,23
570,29	39794,08
570,49	39748,51
570,68	39789,47
570,88	39537,06
571,08	39910,81
571,27	39757,73
571,47	39810,46
571,67	40083,87
571,87	39971,74
572,06	39939,49
572,26	40113,56
572,46	40075,68
572,65	39880,10
572,85	39924,13
573,05	40368,02
573,24	40137,12
573,44	40097,18
573,64	40411,03
573,83	40448,92
574,03	40342,42
574,23	40803,22
574,42	40508,31
574,62	40708,50
574,82	40556,44
575,01	40300,95
575,21	40557,97
575,41	40866,19
575,60	40596,37
575,80	40918,42
576,00	40988,56
576,19	41038,73
576,39	40538,01
576,59	41235,85
576,78	41036,69
576,98	40898,45
577,18	41432,46
577,37	41335,69
577,57	41409,42
577,77	41297,29
577,96	41183,12
578,16	41397,64
578,35	41452,42
578,55	41230,73
578,75	41421,19
578,94	41035,66
579,14	41757,57
579,34	41318,28
579,53	41277,32
579,73	41269,13
579,93	41500,04
580,12	41599,88
580,32	41336,20
580,51	41506,18
580,71	41631,62
580,91	41395,59
581,10	41739,14
581,30	41696,64
581,50	41817,99
581,69	41417,10
581,89	41718,15
582,08	41854,85
582,28	41833,35
582,48	41845,12
582,67	41608,07
582,87	41693,06
583,06	41661,32
583,26	42054,01
583,46	41904,51
583,65	41617,80
583,85	42168,70
584,04	42168,70
584,24	41705,86
584,44	41814,91
584,63	42219,39
584,83	42031,49
585,02	42079,61
585,22	42191,23
585,42	42309,50
585,61	41990,02
585,81	42038,65
586,00	42185,60
586,20	42343,80
586,39	42169,21
586,59	42137,47
586,79	42492,79
586,98	42041,21
587,18	42025,85
587,37	42446,20
587,57	42252,67
587,76	42126,72
587,96	42554,23
588,16	42398,07
588,35	42468,22
588,55	42197,88
588,74	42553,21
588,94	42319,74
589,13	42466,68
589,33	42343,80
589,52	42376,06
589,72	42500,98
589,92	42251,13
590,11	42662,77
590,31	42365,82
590,50	42549,62
590,70	42405,24
590,89	42378,62
591,09	42472,31
591,28	42475,38
591,48	42603,89
591,67	42547,06
591,87	42597,24
592,06	42762,10
592,26	42142,59
592,46	42581,88
592,65	42630,52
592,85	42324,86
593,04	42839,92
593,24	42596,73
593,43	42383,23
593,63	42434,94
593,82	42509,69
594,02	42258,81
594,21	42673,52
594,41	42450,81
594,60	42583,41
594,80	42571,64
594,99	42369,91
595,19	42514,81
595,38	42708,85
595,58	42746,23
595,77	42590,58
595,97	42765,68
596,16	42783,09
596,36	42603,89
596,55	42733,94
596,75	42583,41
596,94	42427,26
597,14	42602,87
597,33	42553,21
597,53	42815,35
597,72	42593,14
597,92	42637,17
598,11	42503,54
598,31	42686,84
598,50	42393,47
598,70	42663,28
598,89	42282,36
599,09	42386,81
599,28	42561,91
599,48	42407,29
599,67	42568,57
599,87	42339,19
600,06	42247,04
600,26	42141,56
600,45	42303,35
600,64	42539,38
600,84	42486,14
601,03	42790,26
601,23	42421,62
601,42	42638,20
601,62	42462,58
601,81	42664,31
602,01	42637,17
602,20	42496,38
602,40	42547,06
602,59	42270,08
602,78	42661,75
602,98	42353,53
603,17	42339,19
603,37	42336,12
603,56	42696,05
603,76	42488,18
603,95	42460,02
604,15	42407,80
604,34	42464,63
604,53	42207,61
604,73	42466,68
604,92	42126,21
605,12	42517,88
605,31	42341,75
605,51	42436,98
605,70	42225,02
605,89	42311,55
606,09	42185,08
606,28	42233,72
606,48	42371,96
606,67	42057,09
606,87	42562,93
607,06	42179,96
607,25	42445,18
607,45	42518,39
607,64	42357,11
607,84	42591,09
608,03	42442,10
608,22	42694,52
608,42	42522,49
608,61	42506,62
608,81	42320,76
609,00	42442,62
609,19	42206,59
609,39	42105,73
609,58	42184,06
609,78	42259,84
609,97	42005,38
610,16	41822,59
610,36	41991,55
610,55	41661,83
610,75	42150,78
610,94	42060,16
611,13	42033,02
611,33	42463,10
611,52	42288,51
611,71	42024,32
611,91	42424,70
612,10	42197,88
612,30	42355,07
612,49	42309,50
612,68	42564,47
612,88	42202,49
613,07	42293,63
613,26	42460,02
613,46	42464,63
613,65	42652,53
613,84	42664,31
614,04	42473,34
614,23	42434,42
614,43	43024,24
614,62	42862,45
614,81	43023,22
615,01	42882,42
615,20	42962,80
615,39	42957,17
615,59	43018,10
615,78	42713,46
615,97	42728,31
616,17	43152,24
616,36	42825,07
616,55	43238,76
616,75	43261,29
616,94	43013,49
617,13	43250,03
617,33	43450,22
617,52	43622,76
617,71	43413,35
617,91	43617,64
618,10	43579,24
618,29	43569,51
618,49	43675,49
618,68	43963,23
618,87	43845,99
619,07	43850,59
619,26	43817,32
619,45	44238,68
619,65	44191,58
619,84	44137,31
620,03	44319,58
620,22	44524,89
620,42	44098,91
620,61	44460,38
620,80	44663,64
621,00	44473,18
621,19	44746,58
621,38	44602,71
621,58	44939,60
621,77	44878,16
621,96	44938,07
622,15	45110,10
622,35	44998,48
622,54	45140,82
622,73	45539,66
622,93	45270,35
623,12	45422,92
623,31	45256,01
623,50	45563,72
623,70	45674,31
623,89	45492,04
624,08	45189,45
624,28	45728,58
624,47	45649,74
624,66	45820,23
624,85	46213,44
625,05	45722,95
625,24	45966,66
625,43	46538,55
625,62	46052,67
625,82	46331,20
626,01	46080,32
626,20	46663,48
626,39	46274,37
626,59	46666,55
626,78	46700,86
626,97	46869,30
627,17	46667,58
627,36	46888,76
627,55	46552,38
627,74	46848,82
627,93	46902,58
628,13	46878,52
628,32	46694,71
628,51	46686,52
628,70	46993,71
628,90	46802,23
629,09	46697,78
629,28	46860,60
629,47	47262,00
629,67	46935,86
629,86	47172,40
630,05	47275,31
630,24	47057,71
630,44	47238,96
630,63	47244,08
630,82	47210,80
631,01	47463,72
631,20	46909,75
631,40	47202,10
631,59	47297,84
631,78	47064,88
631,97	47400,75
632,16	47013,68
632,36	47262,00
632,55	47144,75
632,74	47551,27
632,93	46997,81
633,13	47033,65
633,32	47166,26
633,51	47256,37
633,70	47004,47
633,89	47116,59
634,09	47156,53
634,28	47397,16
634,47	47162,67
634,66	47385,90
634,85	46817,08
635,04	47324,97
635,24	46934,84
635,43	47142,70
635,62	47001,39
635,81	46954,80
636,00	47038,77
636,20	47341,87
636,39	47085,36
636,58	47029,55
636,77	46774,07
636,96	46971,19
637,15	46959,92
637,35	46790,45
637,54	46702,39
637,73	47025,46
637,92	46841,65
638,11	46867,76
638,30	46908,72
638,50	46939,44
638,69	47120,18
638,88	46740,79
639,07	46765,37
639,26	47203,63
639,45	46502,20
639,64	46667,58
639,84	46923,06
640,03	46462,27
640,22	46900,02
640,41	47154,99
640,60	46333,24
640,79	46809,40
640,98	46681,40
641,18	46708,54
641,37	46883,12
641,56	46511,42
641,75	46692,15
641,94	46466,87
642,13	46836,53
642,32	46444,35
642,52	46589,24
642,71	46866,74
642,90	46830,90
643,09	46635,83
643,28	46911,80
643,47	46411,58
643,66	46826,29
643,85	46566,71
644,04	46618,42
644,24	46670,65
644,43	46616,89
644,62	46592,31
644,81	46484,79
645,00	46363,96
645,19	46644,54
645,38	46437,69
645,57	46341,44
645,76	46237,50
645,96	45967,68
646,15	46314,30
646,34	46193,47
646,53	46060,87
646,72	46389,05
646,91	46180,67
647,10	45561,67
647,29	46043,46
647,48	46162,24
647,67	45462,35
647,86	45699,91
648,05	45717,32
648,25	45352,78
648,44	45502,79
648,63	45644,10
648,82	45550,41
649,01	45309,26
649,20	45645,13
649,39	45247,82
649,58	45408,59
649,77	45230,41
649,96	45185,87
650,15	45265,74
650,34	45091,15
650,53	45121,36
650,72	44906,32
650,91	44875,60
651,11	44919,63
651,30	44857,17
651,49	45277,01
651,68	44954,96
651,87	45086,54
652,06	45181,26
652,25	45265,74
652,44	45137,23
652,63	45207,89
652,82	45035,86
653,01	45146,96
653,20	44619,61
653,39	44729,17
653,58	44625,75
653,77	44473,18
653,96	44118,88
654,15	44706,65
654,34	44818,77
654,53	44818,77
654,72	44335,45
654,91	44714,33
655,10	44620,12
655,29	44439,39
655,48	44637,53
655,67	44117,85
655,86	44211,55
656,05	44121,44
656,24	43760,48
656,43	43975,01
656,62	44080,99
656,81	44195,17
657,00	43943,78
657,19	43929,95
657,38	44116,32
657,57	44310,36
657,76	43909,47
657,95	44280,16
658,14	44009,82
658,33	43894,11
658,52	43648,87
658,71	43936,10
658,90	43484,01
659,09	43808,10
659,28	43415,40
659,47	43769,19
659,66	44181,85
659,85	43912,55
660,04	43830,12
660,23	44118,88
660,42	44031,84
660,61	44585,30
660,80	43750,76
660,99	43922,79
661,18	44257,63
661,37	43993,44
661,56	43619,17
661,75	43737,44
661,94	43692,39
662,13	43858,79
662,32	43372,39
662,51	43499,37
662,70	43623,27
662,89	43419,50
663,08	43324,27
663,27	43250,54
663,46	42726,77
663,65	43026,29
663,83	42835,31
664,02	42991,47
664,21	42733,94
664,40	42911,60
664,59	42835,31
664,78	42732,92
664,97	42637,17
665,16	42217,34
665,35	42382,71
665,54	42150,78
665,73	42520,44
665,92	42463,61
666,11	42189,18
666,30	42390,39
666,49	42059,65
666,67	42195,84
666,86	41870,72
667,05	41858,43
667,24	41931,14
667,43	42050,94
667,62	41944,96
667,81	41642,37
668,00	42029,44
668,19	41781,12
668,38	41783,17
668,57	42184,06
668,76	41851,27
668,94	41908,10
669,13	41848,71
669,32	42300,28
669,51	41900,42
669,70	42499,45
669,89	42628,47
670,08	42547,57
670,27	42543,48
670,46	42839,92
670,64	42454,90
670,83	42824,05
671,02	42429,30
671,21	42587,00
671,40	42500,47
671,59	42579,32
671,78	42308,47
671,97	42504,57
672,16	42398,07
672,34	42318,71
672,53	42560,37
672,72	42040,19
672,91	42065,28
673,10	42242,94
673,29	42190,72
673,48	42115,97
673,66	41663,88
673,85	42113,41
674,04	41709,96
674,23	41511,81
674,42	41554,82
674,61	42068,86
674,80	41470,86
674,98	41796,48
675,17	41370,50
675,36	41487,24
675,55	41410,95
675,74	41352,07
675,93	41154,96
676,12	41398,66
676,30	41430,41
676,49	41281,42
676,68	41278,86
676,87	41203,08
677,06	41235,85
677,25	41354,63
677,43	41390,47
677,62	41362,31
677,81	41015,18
678,00	41110,92
678,19	41104,78
678,37	40923,54
678,56	40969,61
678,75	41478,54
678,94	40858,00
679,13	40983,95
679,32	41268,11
679,50	40858,51
679,69	41114,00
679,88	40927,12
680,07	41261,96
680,26	41053,07
680,44	41157,00
680,63	41155,98
680,82	40997,26
681,01	41265,03
681,20	41283,47
681,38	41347,98
681,57	41060,24
681,76	41354,63
681,95	40954,26
682,14	41374,60
682,32	41224,59
682,51	41094,54
682,70	41084,81
682,89	41149,32
683,07	41245,07
683,26	41102,22
683,45	41332,62
683,64	41169,80
683,83	41176,97
684,01	41169,80
684,20	41294,22
684,39	41158,54
684,58	40970,64
684,76	41265,55
684,95	40795,03
685,14	40969,10
685,33	40450,45
685,52	41147,79
685,70	40769,94
685,89	40721,30
686,08	40814,48
686,27	40808,85
686,45	40653,72
686,64	40454,55
686,83	40427,93
687,02	40548,76
687,20	40650,13
687,39	40396,70
687,58	40480,66
687,76	40691,09
687,95	40393,11
688,14	40648,60
688,33	40474,52
688,51	40823,70
688,70	40267,16
688,89	40549,27
689,08	40392,60
689,26	40284,06
689,45	40194,46
689,64	40535,45
689,83	40242,07
690,01	40341,40
690,20	40371,61
690,39	40419,74
690,57	39983,01
690,76	40025,50
690,95	40055,20
691,14	40322,46
691,32	40110,49
691,51	40055,71
691,70	39987,61
691,88	40260,51
692,07	40139,16
692,26	40195,48
692,44	40229,27
692,63	40059,80
692,82	39957,92
693,01	40022,43
693,19	39917,98
693,38	40023,97
693,57	39990,69
693,75	40142,24
693,94	39589,80
694,13	40278,43
694,31	39950,75
694,50	40073,63
694,69	39656,87
694,87	39923,61
695,06	39893,92
695,25	40015,77
695,43	39831,97
695,62	39864,74
695,81	39704,48
695,99	39835,55
696,18	39796,13
696,37	39740,32
696,55	39945,63
696,74	39589,80
696,93	39812,51
697,11	39634,85
697,30	39479,72
697,49	39631,78
697,67	39293,86
697,86	39644,58
698,05	39574,44
698,23	39757,73
698,42	39841,70
698,61	39773,60
698,79	39577,51
698,98	39382,44
699,17	39574,95
699,35	39393,70
699,54	39519,65
699,72	39625,12
699,91	39258,02
700,10	39106,99
700,28	39047,08
700,47	39171,50
700,66	39172,52
700,84	39654,82
701,03	39189,93
701,21	39520,16
701,40	39156,14
701,59	39263,66
701,77	39159,21
701,96	39297,45
702,15	39103,40
702,33	39372,20
702,52	39209,39
702,70	39331,75
702,89	38909,36
703,08	39264,17
703,26	38880,17
703,45	38954,41
703,63	39328,17
703,82	39089,58
704,01	38928,30
704,19	38961,07
704,38	38696,37
704,56	39259,56
704,75	38855,09
704,94	39094,70
705,12	38836,66
705,31	38970,29
705,49	38948,27
705,68	38723,51
705,86	39003,56
706,05	38686,64
706,24	39026,09
706,42	38727,60
706,61	38633,91
706,79	38649,78
706,98	38358,45
707,17	38603,70
707,35	38720,43
707,54	38297,02
707,72	38531,00
707,91	38102,46
708,09	38547,89
708,28	38396,85
708,46	38048,70
708,65	38479,28
708,84	38396,34
709,02	38213,05
709,21	38581,17
709,39	38324,66
709,58	37980,09
709,76	38221,75
709,95	38024,64
710,13	38007,23
710,32	37872,57
710,50	38135,23
710,69	37829,05
710,88	38065,60
711,06	37593,54
711,25	37957,56
711,43	37721,54
711,62	37902,27
711,80	37630,91
711,99	37418,44
712,17	37646,79
712,36	37600,71
712,54	37486,53
712,73	37668,80
712,91	37550,53
713,10	37457,35
713,28	37435,33
713,47	37624,26
713,65	37275,08
713,84	37162,44
714,02	37284,81
714,21	37168,58
714,39	37152,71
714,58	37077,45
714,76	37204,94
714,95	36817,87
715,13	37129,67
715,32	37065,16
715,50	36906,96
715,69	37244,87
715,87	36904,91
716,06	36887,50
716,24	36779,98
716,43	36778,45
716,61	36729,30
716,80	36781,52
716,98	36365,78
717,17	36611,54
717,35	36405,72
717,54	36394,96
717,72	36325,33
717,91	36349,40
718,09	36071,39
718,28	36223,45
718,46	35973,60
718,65	36317,14
718,83	36207,58
719,01	36211,67
719,20	35592,16
719,38	36241,88
719,57	35620,32
719,75	35550,18
719,94	35672,03
720,12	35724,25
720,31	35610,59
720,49	35311,59
720,68	35346,92
720,86	35360,23
721,04	35330,02
721,23	35201,51
721,41	34891,24
721,60	35290,09
721,78	34730,48
721,97	34981,87
722,15	34637,30
722,34	34931,18
722,52	34902,51
722,70	34938,86
722,89	34689,01
723,07	34572,78
723,26	34621,42
723,44	34512,37
723,63	34361,84
723,81	34100,73
723,99	34517,49
724,18	34258,42
724,36	34324,47
724,55	34145,27
724,73	34053,62
724,91	34205,69
725,10	34037,24
725,28	34127,86
725,47	34105,85
725,65	33934,33
725,83	34068,47
726,02	33888,76
726,20	33999,35
726,39	33566,21
726,57	33637,89
726,75	33554,94
726,94	33694,21
727,12	33719,81
727,31	33182,73
727,49	33738,75
727,67	33401,86
727,86	33342,98
728,04	33110,02
728,23	33512,96
728,41	32972,81
728,59	33147,40
728,78	33028,62
728,96	32942,60
729,14	32684,56
729,33	32836,62
729,51	32349,20
729,69	32560,14
729,88	32572,94
730,06	32621,58
730,25	32611,34
730,43	32504,85
730,61	32540,18
730,80	32503,82
730,98	32565,78
731,16	32704,01
731,35	32331,28
731,53	32407,06
731,71	32194,58
731,90	32130,58
732,08	32197,14
732,26	32043,03
732,45	31888,41
732,63	31955,48
732,81	31319,07
733,00	31709,21
733,18	31302,18
733,36	31480,86
733,55	31297,06
733,73	31541,28
733,91	31284,26
734,10	31210,02
734,28	31262,24
734,46	31375,91
734,65	30953,00
734,83	30979,11
735,01	30979,62
735,20	30980,14
735,38	30690,86
735,56	30893,61
735,75	30629,42
735,93	30471,73
736,11	30985,77
736,30	30608,94
736,48	30284,85
736,66	30454,32
736,84	30586,41
737,03	30298,67
737,21	30237,75
737,39	30096,95
737,58	30101,56
737,76	29930,55
737,94	29693,50
738,12	29962,81
738,31	29638,20
738,49	29946,42
738,67	29527,61
738,86	29561,92
739,04	29500,99
739,22	29698,11
739,40	29387,84
739,59	29398,59
739,77	29143,11
739,95	29434,43
740,14	29009,99
740,32	29041,22
740,50	28779,59
740,68	29020,23
740,87	28806,22
741,05	28851,78
741,23	28594,76
741,41	28444,75
741,60	28614,73
741,78	28696,65
741,96	28143,70
742,14	28207,19
742,33	28304,46
742,51	28293,20
742,69	27874,39
742,87	27989,08
743,06	27914,33
743,24	27968,09
743,42	27954,26
743,60	27837,02
743,79	27797,08
743,97	27716,70
744,15	27526,75
744,33	27511,90
744,52	27211,36
744,70	27382,88
744,88	27171,94
745,06	27373,66
745,24	27049,57
745,43	27353,18
745,61	27117,15
745,79	26840,17
745,97	26904,17
746,16	26907,75
746,34	26798,70
746,52	26811,49
746,70	26471,53
746,88	26504,81
747,07	26448,49
747,25	26097,27
747,43	26055,28
747,61	26233,46
747,79	26135,67
747,98	25939,57
748,16	25896,56
748,34	25943,67
748,52	25645,18
748,70	25834,10
748,89	26018,93
749,07	25537,66
749,25	25650,81
749,43	25607,80
749,61	25450,11
749,79	25790,07
749,98	25383,55
750,16	25483,39
750,34	25081,47
750,52	25541,24
750,70	24986,75
750,88	25286,27
751,07	25194,62
751,25	25213,06
751,43	24922,76
751,61	25078,40
751,79	25019,01
751,97	25034,88
752,16	24895,11
752,34	25041,03
752,52	24797,83
752,70	25000,58
752,88	24726,15
753,06	24789,64
753,25	24586,89
753,43	24700,55
753,61	24458,38
753,79	24603,27
753,97	24302,22
754,15	24477,83
754,33	24315,53
754,52	24833,67
754,70	24319,12
754,88	24361,10
755,06	24376,97
755,24	24643,72
755,42	24356,49
755,60	24691,34
755,78	24455,82
755,97	24666,76
756,15	24356,49
756,33	24537,23
756,51	24411,28
756,69	24466,06
756,87	24442,51
757,05	24730,25
757,23	24381,58
757,41	24608,90
757,60	24426,64
757,78	24426,12
757,96	24460,43
758,14	24548,49
758,32	24319,12
758,50	24508,04
758,68	24438,41
758,86	24518,28
759,04	24354,96
759,22	24480,91
759,41	24452,75
759,59	24652,42
759,77	24716,42
759,95	24398,48
760,13	24337,04
760,31	24469,64
760,49	24423,05
760,67	24520,84
760,85	24410,76
761,03	24597,13
761,21	24425,61
761,39	24645,26
761,57	24471,18
761,76	24433,29
761,94	24611,46
762,12	24550,03
762,30	24389,26
762,48	24716,93
762,66	24367,76
762,84	24568,97
763,02	24166,03
763,20	24557,19
763,38	24289,93
763,56	24331,92
763,74	24413,32
763,92	24405,64
764,10	24241,81
764,28	24374,92
764,46	24234,13
764,64	24155,79
764,82	24084,62
765,00	24528,01
765,19	23988,88
765,37	24171,66
765,55	23919,76
765,73	24233,61
765,91	23877,27
766,09	23829,65
766,27	23642,26
766,45	23818,90
766,63	23671,96
766,81	23684,25
766,99	23620,76
767,17	23726,23
767,35	23752,34
767,53	23973,52
767,71	23750,29
767,89	23494,30
768,07	23614,10
768,25	23503,51
768,43	23320,22
768,61	23525,02
768,79	23376,03
768,97	23427,23
769,15	23387,80
769,33	23236,77
769,51	22895,27
769,69	23128,22
769,87	22918,31
770,05	22928,55
770,23	22903,46
770,41	22989,47
770,59	22742,18
770,77	22722,73
770,95	22657,19
771,13	22543,02
771,31	22459,05
771,49	22490,79
771,67	22357,67
771,85	22779,56
772,03	22485,67
772,21	22355,63
772,38	22213,29
772,56	22179,50
772,74	21938,35
772,92	21914,80
773,10	21938,35
773,28	22081,20
773,46	21526,20
773,64	21857,46
773,82	21559,48
774,00	21649,59
774,18	21480,12
774,36	21461,69
774,54	21162,69
774,72	21450,94
774,90	21125,31
775,08	21271,23
775,26	21039,29
775,44	21099,71
775,62	20911,81
775,80	21037,76
775,97	20830,40
776,15	21019,33
776,33	20867,78
776,51	20693,70
776,69	20548,29
776,87	20656,84
777,05	20551,88
777,23	20652,74
777,41	20198,60
777,59	20202,19
777,77	19992,78
777,95	20176,59
778,13	19864,78
778,30	20114,64
778,48	19982,54
778,66	20100,30
778,84	19736,79
779,02	19759,83
779,20	19549,91
779,38	19819,22
779,56	19371,74
779,74	19502,81
779,92	19380,95
780,09	19466,45
780,27	19354,33
780,45	19117,79
780,63	19191,52
780,81	19166,94
780,99	18952,41
781,17	19054,30
781,35	18900,19
781,52	18786,53
781,70	18743,52
781,88	18772,19
782,06	18668,26
782,24	18681,06
782,42	18597,09
782,60	18612,96
782,78	18325,74
782,95	18466,53
783,13	18314,47
783,31	18315,50
783,49	18200,30
783,67	18084,08
783,85	17956,59
784,03	17938,67
784,20	17725,17
784,38	17976,05
784,56	17722,61
784,74	17786,61
784,92	17654,00
785,10	17654,00
785,28	17471,22
785,45	17610,48
785,63	17437,94
785,81	17380,60
785,99	17285,37
786,17	17402,61
786,35	17144,06
786,52	17150,20
786,70	16954,11
786,88	16912,13
787,06	16851,71
787,24	17042,17
787,41	16774,91
787,59	16884,48
787,77	16699,14
787,95	16626,43
788,13	16603,39
788,31	16528,13
788,48	16472,84
788,66	16319,24
788,84	16401,16
789,02	16328,97
789,20	16227,59
789,37	16183,56
789,55	16278,28
789,73	16237,83
789,91	16167,18
790,09	16058,12
790,26	15928,59
790,44	15938,83
790,62	15933,71
790,80	15913,74
790,98	15777,04
791,15	15791,38
791,33	15793,42
791,51	15695,12
791,69	15515,92
791,86	15681,81
792,04	15577,36
792,22	15436,05
792,40	15359,77
792,58	15403,80
792,75	15144,73
792,93	15299,35
793,11	15305,49
793,29	15076,12
793,46	15058,71
793,64	15170,84
793,82	15065,37
794,00	15099,16
794,17	14985,50
794,35	14757,15
794,53	14884,12
794,71	14865,69
794,88	14681,89
795,06	14618,40
795,24	14715,68
795,42	14678,30
795,59	14490,40
795,77	14466,34
795,95	14362,92
796,13	14385,96
796,30	14237,48
796,48	14420,26
796,66	14373,67
796,83	14410,53
797,01	14022,44
797,19	14113,58
797,37	14082,86
797,54	14106,41
797,72	13929,77
797,90	14124,33
798,08	13760,30
798,25	13918,51
798,43	13937,96
798,61	13784,37
798,78	13749,55
798,96	13715,76
799,14	13474,10
799,31	13644,08
799,49	13493,55
799,67	13450,55
799,85	13441,33
800,02	13429,04
800,20	13231,93
800,38	13259,57
800,55	13185,85
800,73	13215,54
800,91	13153,59
801,08	13191,99
801,26	13061,43
801,44	13061,94
801,61	12992,83
801,79	13025,59
801,97	12743,49
802,15	12944,70
802,32	12766,01
802,50	12899,64
802,68	12764,99
802,85	12877,12
803,03	12687,68
803,21	12780,35
803,38	12721,98
803,56	12696,38
803,74	12464,96
803,91	12588,86
804,09	12494,66
804,26	12516,16
804,44	12461,89
804,62	12381,51
804,79	12326,21
804,97	12441,41
805,15	12142,92
805,32	12289,35
805,50	12248,90
805,68	12228,42
805,85	12047,69
806,03	12241,22
806,21	12117,32
806,38	11897,16
806,56	11971,40
806,73	12071,24
806,91	11864,39
807,09	11935,56
807,26	11760,97
807,44	11860,81
807,62	11759,95
807,79	11798,86
807,97	11705,17
808,14	11735,88
808,32	11699,02
808,50	11535,18
808,67	11472,21
808,85	11560,27
809,02	11559,76
809,20	11374,93
809,38	11351,89
809,55	11207,51
809,73	11488,08
809,90	11330,39
810,08	11331,41
810,26	11368,79
810,43	11190,10
810,61	11090,77
810,78	11221,84
810,96	10939,74
811,14	10918,75
811,31	11006,30
811,49	10933,08
811,66	10947,93
811,84	10854,23
812,02	10965,85
812,19	10930,52
812,37	10791,77
812,54	10833,75
812,72	10777,44
812,89	10752,35
813,07	10745,69
813,25	10648,93
813,42	10679,65
813,60	10527,58
813,77	10718,04
813,95	10349,41
814,12	10456,93
814,30	10384,23
814,47	10376,03
814,65	10435,94
814,83	10459,49
815,00	10273,12
815,18	10290,53
815,35	10215,78
815,53	10338,15
815,70	10167,65
815,88	10191,20
816,05	10027,37
816,23	10091,37
816,40	10106,21
816,58	10099,56
816,75	9930,60
816,93	9989,48
817,10	9825,64
817,28	9870,70
817,46	9819,50
817,63	9793,90
817,81	9707,88
817,98	9781,10
818,16	9461,10
818,33	9652,08
818,51	9604,97
818,68	9593,71
818,86	9777,00
819,03	9684,84
819,21	9521,52
819,38	9558,89
819,56	9408,37
819,73	9444,72
819,91	9497,97
820,08	9558,89
820,26	9204,60
820,43	9426,80
820,61	9213,81
820,78	9231,73
820,96	9201,52
821,13	9261,43
821,31	9181,56
821,48	9105,27
821,66	9144,69
821,83	9233,78
822,00	9007,48
822,18	9101,17
822,35	8988,02
822,53	9172,34
822,70	8928,63
822,88	8971,64
823,05	8886,65
823,23	8856,44
823,40	8766,33
823,58	8866,17
823,75	8717,18
823,93	8768,89
824,10	8561,02
824,28	8650,11
824,45	8699,77
824,62	8649,60
824,80	8685,95
824,97	8668,54
825,15	8549,25
825,32	8573,31
825,50	8591,23
825,67	8658,81
825,85	8467,84
826,02	8390,53
826,19	8423,30
826,37	8455,04
826,54	8362,37
826,72	8382,85
826,89	8293,25
827,07	8293,76
827,24	8249,73
827,41	8413,57
827,59	8234,88
827,76	8270,72
827,94	8233,35
828,11	8336,77
828,28	8123,27
828,46	8208,77
828,63	8091,01
828,81	8121,73
828,98	8074,12
829,15	8120,20
829,33	7953,29
829,50	8050,05
829,68	7867,78
829,85	7930,25
830,02	7985,54
830,20	7955,85
830,37	7825,80
830,55	7817,61
830,72	7805,83
830,89	7622,54
831,07	7734,15
831,24	7717,77
831,42	7769,99
831,59	7662,48
831,76	7656,84
831,94	7665,55
832,11	7646,60
832,28	7708,04
832,46	7524,75
832,63	7533,45
832,81	7505,81
832,98	7477,13
833,15	7486,86
833,33	7530,89
833,50	7450,51
833,67	7478,16
833,85	7516,56
834,02	7448,46
834,19	7326,61
834,37	7374,74
834,54	7340,94
834,71	7263,12
834,89	7342,48
835,06	7163,79
835,23	7105,94
835,41	7243,15
835,58	7216,02
835,75	7197,59
835,93	7013,78
836,10	7102,87
836,27	7084,95
836,45	7309,71
836,62	7086,48
836,79	7134,61
836,97	6971,29
837,14	7085,97
837,31	6995,86
837,49	6985,62
837,66	6879,13
837,83	6978,45
838,01	6825,37
838,18	6841,24
838,35	6753,18
838,53	6874,01
838,70	6793,62
838,87	6806,94
839,04	6764,95
839,22	6808,98
839,39	6629,79
839,56	6736,28
839,74	6727,07
839,91	6706,59
840,08	6614,94
840,26	6670,23
840,43	6534,04
840,60	6658,97
840,77	6582,68
840,95	6595,48
841,12	6610,33
841,29	6562,20
841,46	6496,67
841,64	6606,24
841,81	6465,44
841,98	6477,73
842,16	6435,23
842,33	6525,34
842,50	6438,30
842,67	6291,36
842,85	6279,58
843,02	6351,78
843,19	6253,47
843,36	6293,92
843,54	6326,18
843,71	6242,72
843,88	6199,20
844,05	6164,90
844,23	6193,57
844,40	6159,27
844,57	6082,98
844,74	6269,34
844,92	6171,04
845,09	6063,01
845,26	6000,04
845,43	6012,84
845,61	6041,51
845,78	6057,38
845,95	5960,10
846,12	6055,33
846,29	6005,67
846,47	6068,64
846,64	5953,45
846,81	5759,91
846,98	5840,29
847,16	5908,90
847,33	5874,09
847,50	5800,87
847,67	5734,82
847,84	5842,85
848,02	5719,98
848,19	5644,71
848,36	5751,72
848,53	5851,05
848,70	5716,39
848,88	5758,89
849,05	5742,50
849,22	5693,35
849,39	5703,08
849,56	5617,58
849,74	5620,65
849,91	5739,43
850,08	5594,54
850,25	5658,03
850,42	5636,52
850,60	5632,94
850,77	5586,86
850,94	5662,12
851,11	5546,41
851,28	5489,58
851,45	5454,25
851,63	5610,92
851,80	5502,89
851,97	5512,62
852,14	5454,76
852,31	5444,52
852,48	5318,06
852,66	5430,70
852,83	5359,53
853,00	5365,17
853,17	5347,25
853,34	5356,97
853,51	5322,67
853,68	5296,05
853,86	5279,66
854,03	5230,51
854,20	5223,34
854,37	5157,30
854,54	5256,11
854,71	5260,72
854,88	5173,68
855,06	5198,26
855,23	5182,38
855,40	5177,26
855,57	5001,14
855,74	5127,60
855,91	5076,40
856,08	5095,35
856,25	5076,91
856,43	5000,63
856,60	4967,35
856,77	5056,43
856,94	5008,31
857,11	5000,12
857,28	4963,25
857,45	4985,78
857,62	4838,84
857,79	4894,65
857,97	4925,36
858,14	4813,24
858,31	4956,60
858,48	4876,73
858,65	4848,05
858,82	4726,20
858,99	4775,86
859,16	4761,02
859,33	4633,02
859,50	4825,01
859,67	4658,10
859,85	4622,78
860,02	4645,31
860,19	4735,42
860,36	4649,40
860,53	4708,79
860,70	4727,22
860,87	4713,40
861,04	4729,27
861,21	4648,89
861,38	4660,15
861,55	4572,09
861,72	4545,47
861,89	4625,85
862,06	4586,43
862,23	4620,22
862,41	4447,16
862,58	4551,61
862,75	4540,35
862,92	4555,19
863,09	4457,92
863,26	4450,24
863,43	4461,50
863,60	4450,75
863,77	4326,33
863,94	4460,99
864,11	4438,46
864,28	4352,96
864,45	4252,10
864,62	4427,71
864,79	4380,09
864,96	4423,61
865,13	4306,88
865,30	4321,73
865,47	4316,61
865,64	4160,96
865,81	4261,31
865,98	4236,22
866,15	4149,70
866,32	4281,28
866,49	4195,78
866,66	4196,80
866,83	4190,14
867,00	4213,70
867,17	4233,66
867,34	4029,38
867,51	4217,28
867,68	4049,86
867,85	4206,53
868,02	4085,19
868,19	4077,51
868,36	4153,79
868,53	4064,71
868,70	4032,96
868,87	3959,75
869,04	4144,58
869,21	4057,03
869,38	4028,35
869,55	3973,57
869,72	4050,88
869,89	3895,24
870,06	3961,80
870,23	3882,95
870,40	3929,54
870,57	3929,54
870,74	3812,81
870,91	3936,20
871,08	3797,96
871,25	3867,08
871,42	3872,20
871,59	3875,78
871,76	3850,18
871,93	3726,28
872,10	3831,24
872,27	3851,72
872,44	3787,72
872,60	3674,06
872,77	3793,86
872,94	3763,65
873,11	3712,97
873,28	3712,97
873,45	3688,39
873,62	3768,26
873,79	3660,74
873,96	3599,31
874,13	3656,65
874,30	3561,42
874,47	3614,15
874,64	3535,82
874,81	3573,71
874,97	3509,71
875,14	3590,60
875,31	3481,55
875,48	3504,59
875,65	3577,29
875,82	3508,68
875,99	3528,14
876,16	3555,79
876,33	3492,30
876,50	3470,80
876,67	3434,96
876,83	3437,52
877,00	3338,70
877,17	3485,64
877,34	3235,28
877,51	3335,12
877,68	3383,24
877,85	3286,48
878,02	3227,09
878,19	3372,49
878,35	3304,40
878,52	3292,11
878,69	3287,50
878,86	3381,71
879,03	3231,18
879,20	3332,05
879,37	3236,81
879,54	3224,01
879,70	3206,10
879,87	3146,70
880,04	3287,50
880,21	3167,70
880,38	3156,94
880,55	3145,17
880,72	3144,66
880,89	3041,75
881,05	3220,94
881,22	3132,37
881,39	3092,43
881,56	3133,39
881,73	3018,71
881,90	3136,98
882,06	3077,07
882,23	3025,87
882,40	2982,87
882,57	3013,59
882,74	3084,24
882,91	3078,10
883,07	2873,81
883,24	3082,70
883,41	2956,75
883,58	3009,49
883,75	2956,24
883,92	2879,96
884,08	2915,80
884,25	2954,71
884,42	2898,39
884,59	2923,48
884,76	2936,79
884,92	2864,08
885,09	2892,76
885,26	2867,16
885,43	2865,62
885,60	2822,10
885,76	2819,54
885,93	2836,95
886,10	2872,28
886,27	2868,18
886,44	2934,23
886,60	2880,98
886,77	2832,85
886,94	2706,90
887,11	2729,43
887,28	2795,48
887,44	2830,80
887,61	2788,31
887,78	2754,01
887,95	2686,94
888,12	2700,25
888,28	2787,29
888,45	2728,41
888,62	2681,82
888,79	2638,30
888,95	2639,83
889,12	2655,70
889,29	2785,75
889,46	2672,09
889,62	2654,68
889,79	2681,82
889,96	2601,43
890,13	2609,62
890,29	2623,45
890,46	2620,38
890,63	2558,94
890,80	2570,71
890,96	2533,85
891,13	2499,55
891,30	2534,36
891,47	2430,94
891,63	2629,59
891,80	2508,76
891,97	2538,46
892,14	2494,43
892,30	2479,58
892,47	2550,23
892,64	2402,27
892,80	2407,39
892,97	2383,32
893,14	2431,45
893,31	2514,39
893,47	2332,12
893,64	2439,13
893,81	2426,33
893,97	2358,75
894,14	2407,39
>>>>>End Processed Spectral Data<<<<<
