SpectraSuite Datei
++++++++++++++++++++++++++++++++++++
Datum: Mon Dec 11 15:12:34 CET 2017
Benutzer: Praktikum-Pc1
Dark-Spektrum vorhanden: Ja
Referenz-Spektrum vorhanden: Nein
Zahl der probierten Teilspektren: 1
Spektrometer: USB4H10187
Integrationszeit (usec): 150000 (USB4H10187)
Spektren Durchschnitt berechnet: 4 (USB4H10187)
Boxcar Glättung: 0 (USB4H10187)
Dunkelstromkorrektur: Nein (USB4H10187)
Puls/Lampe aktiviert: Nein (USB4H10187)
Correct for Detector Non-linearity: Nein (USB4H10187)
Streulichtkorrektur: Nein (USB4H10187)
Anzahl Pixel in verarbeitetem Spektrum: 3648
>>>>>Begin Processed Spectral Data<<<<<
176,80	-33,28
177,02	-33,28
177,24	-33,28
177,46	23,04
177,68	10,75
177,91	136,19
178,13	160,25
178,35	105,98
178,57	55,81
178,79	187,39
179,02	224,25
179,24	108,54
179,46	164,35
179,68	66,56
179,90	67,58
180,12	164,86
180,35	121,34
180,57	106,49
180,79	141,82
181,01	174,08
181,23	128,00
181,46	216,57
181,68	199,68
181,90	185,85
182,12	227,84
182,34	217,08
182,56	157,18
182,79	93,69
183,01	187,39
183,23	177,66
183,45	183,29
183,67	74,75
183,89	187,90
184,12	197,63
184,34	158,21
184,56	263,68
184,78	189,44
185,00	205,82
185,22	120,83
185,45	136,70
185,67	180,22
185,89	208,89
186,11	157,69
186,33	218,62
186,55	183,29
186,77	180,22
187,00	180,73
187,22	205,82
187,44	146,43
187,66	124,93
187,88	141,31
188,10	255,48
188,32	107,52
188,55	180,22
188,77	210,94
188,99	121,85
189,21	207,87
189,43	192,00
189,65	163,33
189,87	205,82
190,10	212,99
190,32	211,96
190,54	179,20
190,76	250,36
190,98	129,53
191,20	205,82
191,42	176,13
191,64	127,49
191,87	145,92
192,09	170,49
192,31	157,69
192,53	176,64
192,75	184,83
192,97	180,73
193,19	153,09
193,41	128,51
193,64	220,16
193,86	173,57
194,08	196,61
194,30	88,57
194,52	179,20
194,74	218,11
194,96	97,79
195,18	211,96
195,40	138,24
195,63	130,56
195,85	115,71
196,07	139,77
196,29	162,81
196,51	177,66
196,73	187,90
196,95	190,97
197,17	158,21
197,39	214,52
197,61	239,10
197,84	173,57
198,06	155,13
198,28	153,09
198,50	48,64
198,72	227,32
198,94	195,58
199,16	186,37
199,38	250,36
199,60	121,85
199,82	155,13
200,04	177,66
200,26	172,54
200,49	139,77
200,71	151,04
200,93	219,64
201,15	141,82
201,37	94,21
201,59	155,13
201,81	163,33
202,03	249,34
202,25	114,69
202,47	139,77
202,69	148,99
202,91	174,08
203,13	148,99
203,35	160,25
203,58	103,42
203,80	253,95
204,02	126,46
204,24	79,36
204,46	195,07
204,68	217,08
204,90	168,45
205,12	183,29
205,34	152,57
205,56	195,58
205,78	187,90
206,00	154,62
206,22	127,49
206,44	189,44
206,66	107,01
206,88	202,24
207,10	113,66
207,32	268,28
207,54	189,95
207,76	149,50
207,99	163,84
208,21	160,77
208,43	214,52
208,65	80,89
208,87	192,51
209,09	174,08
209,31	118,78
209,53	91,65
209,75	286,20
209,97	214,01
210,19	159,74
210,41	163,84
210,63	179,71
210,85	180,22
211,07	228,86
211,29	175,61
211,51	248,83
211,73	255,48
211,95	208,38
212,17	200,70
212,39	214,01
212,61	214,01
212,83	114,17
213,05	238,08
213,27	227,32
213,49	197,12
213,71	161,79
213,93	161,28
214,15	259,58
214,37	212,99
214,59	217,60
214,81	158,21
215,03	123,90
215,25	181,76
215,47	197,12
215,69	195,58
215,91	205,82
216,13	192,51
216,35	219,13
216,57	134,14
216,79	194,05
217,01	233,47
217,23	138,24
217,45	176,13
217,67	201,21
217,89	258,56
218,11	221,69
218,33	172,54
218,55	121,85
218,77	186,88
218,99	179,71
219,21	193,02
219,43	153,09
219,65	227,32
219,87	259,58
220,09	237,05
220,31	161,79
220,53	189,44
220,75	160,25
220,97	129,53
221,19	109,57
221,41	100,35
221,63	141,82
221,85	208,38
222,06	176,64
222,28	242,17
222,50	176,64
222,72	196,09
222,94	158,72
223,16	189,44
223,38	237,05
223,60	96,25
223,82	180,22
224,04	212,99
224,26	166,40
224,48	175,61
224,70	237,56
224,92	127,49
225,14	199,16
225,36	225,28
225,58	197,12
225,80	202,24
226,02	215,04
226,24	181,76
226,45	156,67
226,67	128,00
226,89	94,21
227,11	175,10
227,33	178,69
227,55	66,56
227,77	201,72
227,99	153,60
228,21	168,45
228,43	198,65
228,65	152,57
228,87	193,02
229,09	57,86
229,31	144,38
229,52	177,15
229,74	63,49
229,96	233,47
230,18	198,14
230,40	208,89
230,62	179,71
230,84	276,48
231,06	70,14
231,28	166,91
231,50	164,86
231,72	143,87
231,94	120,83
232,15	182,78
232,37	105,47
232,59	130,56
232,81	271,87
233,03	140,80
233,25	228,86
233,47	137,21
233,69	165,89
233,91	164,86
234,13	138,75
234,34	160,77
234,56	148,48
234,78	246,78
235,00	94,21
235,22	162,30
235,44	134,65
235,66	153,60
235,88	156,67
236,10	233,47
236,31	165,37
236,53	199,68
236,75	229,37
236,97	147,97
237,19	221,69
237,41	186,37
237,63	239,10
237,85	192,00
238,07	214,52
238,28	158,72
238,50	196,09
238,72	197,63
238,94	213,50
239,16	166,40
239,38	202,75
239,60	227,32
239,81	165,37
240,03	174,08
240,25	113,15
240,47	238,59
240,69	190,97
240,91	212,99
241,13	290,81
241,34	188,93
241,56	206,33
241,78	183,29
242,00	184,32
242,22	135,68
242,44	233,47
242,66	155,13
242,87	143,36
243,09	228,35
243,31	159,23
243,53	125,44
243,75	209,92
243,97	175,61
244,19	226,81
244,40	219,13
244,62	216,57
244,84	265,21
245,06	193,53
245,28	156,16
245,50	237,05
245,71	273,92
245,93	174,08
246,15	218,11
246,37	208,89
246,59	295,93
246,81	186,37
247,02	127,49
247,24	244,73
247,46	176,64
247,68	223,23
247,90	190,97
248,11	172,03
248,33	172,54
248,55	203,26
248,77	111,10
248,99	214,52
249,21	121,34
249,42	221,18
249,64	254,97
249,86	189,95
250,08	166,91
250,30	201,72
250,51	171,01
250,73	87,55
250,95	200,19
251,17	246,78
251,39	185,34
251,60	273,92
251,82	289,79
252,04	245,76
252,26	147,97
252,48	228,35
252,69	262,65
252,91	221,18
253,13	182,78
253,35	253,95
253,57	207,36
253,78	163,33
254,00	239,10
254,22	193,02
254,44	160,77
254,65	216,57
254,87	155,65
255,09	209,40
255,31	204,80
255,53	143,87
255,74	174,59
255,96	203,77
256,18	221,18
256,40	228,35
256,61	148,48
256,83	332,79
257,05	225,28
257,27	270,33
257,48	178,69
257,70	193,53
257,92	212,99
258,14	213,50
258,36	166,91
258,57	293,88
258,79	199,16
259,01	175,10
259,23	188,41
259,44	132,61
259,66	216,06
259,88	260,09
260,10	209,92
260,31	220,67
260,53	272,89
260,75	155,65
260,97	208,89
261,18	235,00
261,40	285,69
261,62	138,24
261,84	226,30
262,05	193,53
262,27	269,82
262,49	213,50
262,71	220,16
262,92	257,02
263,14	180,73
263,36	170,49
263,57	278,01
263,79	236,03
264,01	227,84
264,23	149,50
264,44	194,05
264,66	177,66
264,88	276,99
265,10	174,08
265,31	280,57
265,53	156,67
265,75	262,14
265,96	169,98
266,18	296,96
266,40	238,08
266,62	248,32
266,83	272,38
267,05	112,64
267,27	216,06
267,48	302,08
267,70	111,10
267,92	215,55
268,14	225,28
268,35	264,19
268,57	224,25
268,79	312,83
269,00	271,87
269,22	254,97
269,44	194,05
269,65	193,53
269,87	187,39
270,09	222,20
270,31	184,83
270,52	228,35
270,74	233,98
270,96	130,05
271,17	257,02
271,39	177,15
271,61	260,09
271,82	233,47
272,04	233,47
272,26	215,55
272,47	236,03
272,69	185,34
272,91	137,21
273,12	215,55
273,34	238,59
273,56	223,74
273,77	125,95
273,99	188,41
274,21	250,88
274,42	164,86
274,64	270,84
274,86	154,11
275,08	238,59
275,29	145,41
275,51	259,58
275,72	195,07
275,94	237,56
276,16	203,26
276,37	230,40
276,59	184,32
276,81	157,69
277,02	225,79
277,24	222,72
277,46	205,31
277,67	163,84
277,89	236,54
278,11	233,98
278,32	215,55
278,54	92,67
278,76	354,81
278,97	264,70
279,19	228,86
279,41	199,16
279,62	250,36
279,84	235,52
280,05	167,42
280,27	178,17
280,49	201,72
280,70	262,14
280,92	227,84
281,14	214,52
281,35	77,82
281,57	214,01
281,79	184,83
282,00	251,90
282,22	315,39
282,43	246,27
282,65	217,08
282,87	169,47
283,08	221,18
283,30	276,48
283,52	320,00
283,73	200,70
283,95	206,33
284,16	198,14
284,38	233,98
284,60	257,02
284,81	236,54
285,03	237,56
285,24	163,84
285,46	210,94
285,68	209,40
285,89	264,19
286,11	170,49
286,32	263,16
286,54	254,97
286,76	177,66
286,97	285,18
287,19	204,80
287,40	218,11
287,62	254,97
287,84	265,72
288,05	217,60
288,27	211,45
288,48	209,40
288,70	254,97
288,92	210,94
289,13	171,01
289,35	265,72
289,56	231,93
289,78	214,01
289,99	240,12
290,21	183,81
290,43	200,70
290,64	192,51
290,86	261,12
291,07	266,75
291,29	300,03
291,51	254,97
291,72	251,39
291,94	288,76
292,15	280,57
292,37	225,28
292,58	259,58
292,80	294,40
293,01	210,43
293,23	259,07
293,45	260,09
293,66	240,64
293,88	322,04
294,09	114,69
294,31	238,08
294,52	222,20
294,74	205,31
294,96	252,41
295,17	210,43
295,39	273,92
295,60	286,20
295,82	241,66
296,03	262,65
296,25	186,88
296,46	248,83
296,68	235,52
296,89	211,45
297,11	193,02
297,32	299,52
297,54	343,55
297,76	249,34
297,97	205,82
298,19	274,94
298,40	317,95
298,62	230,91
298,83	224,76
299,05	322,04
299,26	230,91
299,48	226,30
299,69	302,08
299,91	165,89
300,12	289,28
300,34	294,91
300,55	284,67
300,77	292,86
300,98	190,46
301,20	245,24
301,41	214,01
301,63	270,33
301,84	199,68
302,06	284,67
302,28	171,52
302,49	209,40
302,71	313,85
302,92	132,09
303,14	267,77
303,35	344,57
303,57	268,80
303,78	321,53
304,00	302,08
304,21	222,72
304,43	227,32
304,64	324,60
304,86	237,05
305,07	271,87
305,29	304,64
305,50	270,33
305,71	328,19
305,93	315,39
306,14	349,18
306,36	340,47
306,57	340,99
306,79	332,79
307,00	249,34
307,22	317,44
307,43	268,28
307,65	365,05
307,86	286,72
308,08	324,60
308,29	330,23
308,51	315,39
308,72	354,30
308,94	309,76
309,15	308,73
309,37	311,80
309,58	242,17
309,80	287,74
310,01	345,59
310,22	352,25
310,44	337,91
310,65	332,28
310,87	372,22
311,08	383,99
311,30	249,85
311,51	378,87
311,73	305,15
311,94	342,01
312,16	284,16
312,37	366,07
312,58	400,38
312,80	297,98
313,01	351,74
313,23	345,08
313,44	387,58
313,66	326,65
313,87	387,58
314,09	257,02
314,30	394,75
314,51	389,63
314,73	291,32
314,94	387,07
315,16	406,01
315,37	415,74
315,59	349,69
315,80	285,69
316,01	391,16
316,23	408,57
316,44	405,50
316,66	437,24
316,87	461,82
317,09	368,63
317,30	409,08
317,51	375,29
317,73	394,23
317,94	381,95
318,16	417,79
318,37	347,64
318,58	266,75
318,80	461,30
319,01	414,71
319,23	499,70
319,44	347,13
319,66	412,15
319,87	437,75
320,08	471,54
320,30	382,97
320,51	411,64
320,73	399,87
320,94	461,82
321,15	395,26
321,37	477,69
321,58	427,00
321,80	510,46
322,01	409,08
322,22	370,17
322,44	444,92
322,65	507,90
322,86	475,13
323,08	511,99
323,29	471,54
323,51	440,83
323,72	458,74
323,93	493,56
324,15	531,96
324,36	477,69
324,58	542,71
324,79	496,12
325,00	480,25
325,22	495,61
325,43	528,89
325,64	490,49
325,86	479,22
326,07	445,43
326,28	544,25
326,50	509,94
326,71	462,33
326,93	456,70
327,14	519,67
327,35	437,24
327,57	577,53
327,78	562,17
327,99	602,10
328,21	498,68
328,42	595,45
328,63	585,21
328,85	566,26
329,06	537,59
329,27	504,82
329,49	553,98
329,70	530,42
329,91	634,36
330,13	515,58
330,34	615,93
330,56	447,99
330,77	551,93
330,98	627,70
331,20	591,35
331,41	670,71
331,62	619,00
331,84	621,05
332,05	581,11
332,26	675,32
332,48	636,41
332,69	582,14
332,90	625,14
333,11	556,54
333,33	584,70
333,54	634,36
333,75	549,88
333,97	576,50
334,18	623,61
334,39	696,82
334,61	658,93
334,82	764,92
335,03	639,99
335,25	676,85
335,46	663,54
335,67	679,93
335,89	643,57
336,10	608,76
336,31	626,68
336,53	653,30
336,74	711,67
336,95	709,62
337,16	686,07
337,38	676,34
337,59	827,89
337,80	638,45
338,02	697,85
338,23	752,63
338,44	711,67
338,65	705,01
338,87	741,36
339,08	691,70
339,29	747,00
339,51	712,18
339,72	650,23
339,93	817,14
340,14	757,24
340,36	732,15
340,57	763,38
340,78	713,21
341,00	674,81
341,21	814,07
341,42	885,23
341,63	766,45
341,85	771,06
342,06	823,80
342,27	838,64
342,49	868,85
342,70	909,81
342,91	949,23
343,12	890,35
343,34	902,64
343,55	871,41
343,76	910,32
343,97	899,06
344,19	910,83
344,40	905,71
344,61	909,30
344,82	872,95
345,04	832,50
345,25	910,83
345,46	867,31
345,67	909,81
345,89	880,11
346,10	894,45
346,31	863,73
346,52	859,63
346,74	859,63
346,95	928,24
347,16	893,43
347,37	851,96
347,59	876,02
347,80	872,43
348,01	995,31
348,22	964,59
348,43	932,34
348,65	896,50
348,86	944,63
349,07	1059,31
349,28	949,75
349,50	945,14
349,71	1033,71
349,92	970,23
350,13	1013,23
350,34	958,96
350,56	1020,91
350,77	1112,56
350,98	988,14
351,19	1028,59
351,41	1115,63
351,62	1119,73
351,83	972,79
352,04	1062,38
352,25	1068,53
352,47	1137,65
352,68	1200,11
352,89	1038,32
353,10	1158,13
353,31	1125,87
353,53	1131,50
353,74	1076,21
353,95	1113,07
354,16	1139,18
354,37	1141,23
354,59	1100,27
354,80	1206,77
355,01	1114,10
355,22	1071,60
355,43	1099,25
355,65	1101,81
355,86	1288,17
356,07	1200,62
356,28	1201,65
356,49	1086,45
356,70	1198,57
356,92	1250,28
357,13	1167,34
357,34	1195,50
357,55	1292,27
357,76	1265,64
357,98	1154,03
358,19	1246,70
358,40	1232,88
358,61	1242,61
358,82	1243,63
359,03	1226,22
359,25	1346,03
359,46	1373,68
359,67	1260,52
359,88	1279,47
360,09	1257,96
360,30	1267,18
360,51	1275,88
360,73	1398,25
360,94	1318,38
361,15	1285,61
361,36	1267,69
361,57	1365,48
361,78	1309,16
362,00	1312,24
362,21	1371,12
362,42	1426,92
362,63	1366,00
362,84	1364,46
363,05	1285,61
363,26	1355,76
363,48	1428,46
363,69	1423,34
363,90	1404,91
364,11	1382,89
364,32	1373,68
364,53	1409,51
364,74	1397,74
364,95	1380,33
365,17	1403,37
365,38	1553,90
365,59	1534,44
365,80	1540,07
366,01	1443,31
366,22	1523,18
366,43	1400,81
366,64	1525,74
366,86	1561,58
367,07	1519,59
367,28	1531,37
367,49	1518,06
367,70	1667,05
367,91	1547,75
368,12	1521,64
368,33	1549,80
368,54	1655,78
368,76	1570,28
368,97	1592,30
369,18	1614,82
369,39	1608,68
369,60	1623,02
369,81	1623,53
370,02	1625,58
370,23	1667,05
370,44	1619,94
370,65	1562,60
370,87	1612,78
371,08	1734,63
371,29	1746,92
371,50	1765,35
371,71	1752,55
371,92	1770,47
372,13	1754,09
372,34	1705,96
372,55	1705,45
372,76	1690,60
372,97	1755,11
373,18	1826,28
373,40	1739,24
373,61	1776,61
373,82	1833,44
374,03	1799,14
374,24	1820,64
374,45	1719,78
374,66	1909,22
374,87	1881,57
375,08	1827,81
375,29	1877,99
375,50	1861,60
375,71	1830,88
375,92	1885,67
376,13	1877,48
376,34	1840,10
376,56	1889,25
376,77	1963,49
376,98	1909,73
377,19	1863,14
377,40	1936,87
377,61	2021,35
377,82	1944,55
378,03	1954,27
378,24	1981,41
378,45	2003,94
378,66	1924,58
378,87	1915,87
379,08	1952,74
379,29	2010,59
379,50	2105,31
379,71	1952,23
379,92	2031,07
380,13	2004,45
380,34	2028,51
380,55	2073,06
380,76	2111,97
380,97	2187,74
381,18	2105,31
381,39	2088,93
381,60	2141,15
381,81	1976,29
382,02	2146,27
382,24	2079,71
382,45	2050,02
382,66	2118,11
382,87	2222,56
383,08	2189,28
383,29	2139,62
383,50	2218,97
383,71	2179,55
383,92	2165,21
384,13	2096,61
384,34	2289,63
384,55	2163,68
384,76	2275,81
384,97	2213,85
385,18	2297,82
385,39	2264,03
385,60	2237,92
385,81	2329,05
386,02	2362,33
386,23	2334,68
386,44	2378,72
386,65	2297,82
386,86	2328,54
387,07	2417,63
387,28	2397,15
387,49	2362,33
387,70	2429,91
387,91	2455,51
388,12	2506,71
388,32	2456,03
388,53	2487,26
388,74	2488,28
388,95	2447,83
389,16	2445,79
389,37	2579,42
389,58	2546,14
389,79	2620,38
390,00	2622,42
390,21	2615,26
390,42	2577,88
390,63	2632,15
390,84	2605,02
391,05	2679,77
391,26	2776,02
391,47	2606,04
391,68	2704,34
391,89	2687,96
392,10	2725,33
392,31	2761,17
392,52	2800,09
392,73	2736,60
392,94	2825,68
393,15	2766,81
393,36	2817,49
393,57	2815,96
393,78	2855,89
393,98	2888,66
394,19	2846,16
394,40	2868,69
394,61	2771,41
394,82	3019,73
395,03	2903,00
395,24	2955,22
395,45	2898,39
395,66	2969,04
395,87	2893,78
396,08	2963,92
396,29	3045,33
396,50	3053,52
396,71	2955,22
396,92	2975,19
397,12	3049,94
397,33	3004,88
397,54	3054,55
397,75	3090,38
397,96	3100,62
398,17	3097,04
398,38	3080,66
398,59	3250,13
398,80	3004,37
399,01	3258,32
399,22	3219,92
399,43	3183,06
399,63	3325,90
399,84	3405,26
400,05	3318,22
400,26	3289,04
400,47	3394,51
400,68	3396,56
400,89	3299,79
401,10	3323,85
401,31	3336,65
401,52	3351,50
401,72	3395,02
401,93	3293,65
402,14	3435,98
402,35	3539,40
402,56	3578,83
402,77	3440,59
402,98	3526,60
403,19	3565,51
403,40	3575,75
403,60	3536,33
403,81	3667,40
404,02	3559,37
404,23	3736,52
404,44	3668,94
404,65	3715,02
404,86	3641,29
405,07	3786,18
405,27	3612,10
405,48	3768,77
405,69	3630,02
405,90	3861,96
406,11	3776,97
406,32	3788,23
406,53	3909,06
406,74	3900,87
406,94	3845,57
407,15	4052,93
407,36	3838,92
407,57	3947,46
407,78	4011,97
407,99	4082,11
408,20	3947,97
408,40	4062,66
408,61	4105,67
408,82	4089,79
409,03	4122,56
409,24	4071,36
409,45	4075,97
409,65	4193,22
409,86	4212,16
410,07	4166,08
410,28	4220,35
410,49	4272,57
410,70	4238,78
410,90	4267,97
411,11	4277,69
411,32	4274,11
411,53	4234,69
411,74	4298,17
411,95	4433,34
412,15	4428,22
412,36	4338,11
412,57	4390,33
412,78	4453,31
412,99	4507,07
413,20	4473,79
413,40	4450,24
413,61	4478,40
413,82	4704,70
414,03	4482,49
414,24	4519,36
414,44	4596,15
414,65	4602,81
414,86	4618,68
415,07	4646,84
415,28	4709,30
415,48	4662,20
415,69	4584,89
415,90	4792,25
416,11	4788,66
416,32	4712,38
416,53	4607,42
416,73	4843,45
416,94	4731,32
417,15	4870,58
417,36	4901,30
417,56	4754,36
417,77	4722,62
417,98	4805,05
418,19	4944,31
418,40	4965,30
418,60	5015,48
418,81	4985,78
419,02	4912,05
419,23	4983,22
419,44	4780,98
419,64	4893,62
419,85	4957,62
420,06	4901,81
420,27	5055,41
420,47	5016,50
420,68	5015,48
420,89	5068,72
421,10	5182,38
421,30	5050,29
421,51	5197,23
421,72	5187,50
421,93	5140,40
422,14	5069,75
422,34	5235,63
422,55	5214,64
422,76	5203,38
422,97	5289,39
423,17	5303,22
423,38	5340,08
423,59	5093,81
423,80	5212,08
424,00	5234,61
424,21	5251,50
424,42	5231,02
424,63	5284,78
424,83	5218,74
425,04	5564,84
425,25	5237,17
425,46	5598,63
425,66	5433,26
425,87	5518,76
426,08	5371,31
426,28	5694,38
426,49	5446,06
426,70	5651,37
426,91	5560,24
427,11	5583,27
427,32	5660,07
427,53	5564,33
427,74	5613,48
427,94	5725,10
428,15	5719,98
428,36	5721,00
428,56	5691,82
428,77	5867,94
428,98	5788,58
429,19	5732,26
429,39	5768,62
429,60	5771,18
429,81	5902,25
430,01	5850,53
430,22	5801,90
430,43	5837,73
430,64	5823,40
430,84	5819,30
431,05	5993,89
431,26	6060,96
431,46	6006,69
431,67	6011,81
431,88	6203,30
432,08	6127,01
432,29	6148,00
432,50	6101,41
432,70	6167,46
432,91	6248,86
433,12	6417,31
433,33	6235,04
433,53	6242,21
433,74	6390,69
433,95	6373,79
434,15	6162,85
434,36	6461,34
434,57	6314,40
434,77	6301,60
434,98	6439,33
435,19	6440,86
435,39	6569,88
435,60	6549,92
435,81	6754,20
436,01	6576,54
436,22	6696,86
436,43	6695,32
436,63	6855,06
436,84	6919,06
437,05	6709,66
437,25	6660,51
437,46	6950,81
437,67	6867,35
437,87	6789,53
438,08	6818,20
438,29	6984,09
438,49	6909,33
438,70	6819,22
438,91	6905,75
439,11	7183,76
439,32	7270,29
439,52	7076,76
439,73	6933,91
439,94	7101,84
440,14	7189,91
440,35	7290,26
440,56	7162,77
440,76	7161,23
440,97	7252,88
441,18	7369,62
441,38	7120,79
441,59	7375,76
441,79	7313,30
442,00	7474,06
442,21	7353,23
442,41	7416,21
442,62	7199,12
442,83	7258,00
443,03	7297,42
443,24	7487,89
443,44	7596,94
443,65	7549,32
443,86	7401,87
444,06	7477,13
444,27	7597,96
444,48	7612,81
444,68	7501,20
444,89	7644,04
445,09	7730,57
445,30	7531,92
445,51	7787,91
445,71	7736,20
445,92	7728,01
446,12	7805,32
446,33	7858,06
446,54	7888,78
446,74	7830,92
446,95	7658,89
447,15	7976,33
447,36	7937,41
447,57	7711,11
447,77	7841,67
447,98	8018,82
448,18	7734,67
448,39	7645,07
448,59	7976,33
448,80	8009,09
449,01	7982,47
449,21	7910,79
449,42	8003,97
449,62	8076,16
449,83	7908,74
450,04	7970,69
450,24	8100,74
450,45	8149,89
450,65	8081,28
450,86	8070,02
451,06	8267,65
451,27	8249,22
451,47	7961,99
451,68	8185,73
451,89	8192,90
452,09	8335,74
452,30	8093,57
452,50	8284,03
452,71	8502,65
452,91	8359,81
453,12	8319,87
453,33	8459,13
453,53	8119,17
453,74	8494,46
453,94	8421,25
454,15	8175,49
454,35	8285,57
454,56	8561,02
454,76	8754,04
454,97	8394,62
455,17	8534,91
455,38	8771,45
455,58	8615,80
455,79	8600,96
456,00	8698,75
456,20	8560,51
456,41	8723,83
456,61	8406,91
456,82	8497,02
457,02	8833,40
457,23	8908,66
457,43	8913,27
457,64	8638,33
457,84	8564,09
458,05	8888,18
458,25	8862,58
458,46	8929,66
458,66	8780,67
458,87	8960,38
459,07	9095,03
459,28	8980,34
459,48	9054,58
459,69	9098,61
459,89	9072,50
460,10	9328,50
460,30	9522,54
460,51	9287,54
460,71	9375,60
460,92	9446,77
461,12	9486,19
461,33	9614,19
461,53	9415,54
461,74	9429,87
461,94	9505,65
462,15	9722,73
462,35	9731,95
462,56	9696,11
462,76	9777,51
462,97	9941,35
463,17	9684,33
463,38	9858,92
463,58	9817,45
463,79	10214,76
463,99	10013,54
464,20	10288,48
464,40	10262,37
464,61	10111,33
464,81	10461,54
465,02	10340,19
465,22	10335,59
465,43	10532,70
465,63	10414,95
465,83	10454,37
466,04	10829,66
466,24	10492,77
466,45	11123,54
466,65	10864,99
466,86	10811,74
467,06	10847,07
467,27	10992,47
467,47	11271,00
467,68	11131,22
467,88	11198,81
468,08	11411,79
468,29	11331,92
468,49	11661,13
468,70	11620,69
468,90	11747,66
469,11	11828,04
469,31	11885,90
469,52	11812,17
469,72	12464,45
469,92	12102,47
470,13	12376,90
470,33	12294,98
470,54	12258,63
470,74	12555,07
470,95	12613,44
471,15	12739,90
471,35	12657,98
471,56	12849,98
471,76	13004,60
471,97	13136,70
472,17	13188,41
472,38	13236,02
472,58	13525,30
472,78	13564,21
472,99	13521,20
473,19	13654,83
473,40	14059,31
473,60	13738,80
473,80	14010,15
474,01	14229,80
474,21	14376,74
474,42	14375,72
474,62	14748,45
474,83	14470,44
475,03	14822,69
475,23	14759,71
475,44	15219,48
475,64	15441,68
475,85	15265,05
476,05	15250,71
476,25	15700,75
476,46	15831,82
476,66	15717,65
476,86	15871,25
477,07	16127,24
477,27	16451,84
477,48	16226,57
477,68	16450,31
477,88	16793,34
478,09	16709,38
478,29	16923,39
478,50	17066,24
478,70	17071,87
478,90	17162,49
479,11	17311,48
479,31	17649,91
479,51	17875,70
479,72	17664,75
479,92	17865,46
480,12	17904,88
480,33	18114,80
480,53	18248,43
480,74	18506,47
480,94	18682,08
481,14	18911,46
481,35	18890,46
481,55	18932,45
481,75	18974,94
481,96	19241,18
482,16	19214,55
482,36	19618,52
482,57	19840,21
482,77	19545,30
482,97	19987,66
483,18	20073,17
483,38	20102,35
483,58	20475,59
483,79	20415,69
483,99	20561,61
484,19	20564,17
484,40	20695,75
484,60	20711,62
484,80	21149,89
485,01	21400,25
485,21	21253,82
485,41	21338,30
485,62	21667,00
485,82	21484,73
486,02	21757,11
486,23	21793,97
486,43	21965,49
486,63	22274,73
486,84	22322,86
487,04	22246,06
487,24	22629,54
487,45	22349,99
487,65	22948,00
487,85	22795,94
488,06	23099,04
488,26	22926,50
488,46	23189,15
488,67	23163,55
488,87	23378,08
489,07	23462,04
489,27	23601,30
489,48	23864,98
489,68	23676,57
489,88	24043,67
490,09	24073,87
490,29	24052,88
490,49	24304,78
490,70	24407,69
490,90	24524,94
491,10	24318,09
491,30	24856,20
491,51	24545,42
491,71	25122,94
491,91	24840,84
492,12	25045,63
492,32	24932,48
492,52	25183,87
492,72	25026,18
492,93	25331,33
493,13	25290,88
493,33	25531,51
493,53	25495,16
493,74	25562,75
493,94	25996,40
494,14	25601,15
494,34	25850,49
494,55	25853,56
494,75	26024,05
494,95	26123,38
495,16	26347,63
495,36	26288,75
495,56	26374,25
495,76	26346,09
495,97	26367,60
496,17	26290,29
496,37	26446,96
496,57	26638,95
496,78	26708,07
496,98	26703,98
497,18	26772,58
497,38	26680,42
497,59	27132,00
497,79	26801,77
497,99	27103,33
498,19	27141,22
498,39	27371,10
498,60	27337,31
498,80	27290,72
499,00	27342,43
499,20	27489,37
499,41	27618,39
499,61	27418,72
499,81	27493,98
500,01	27607,13
500,22	27613,79
500,42	27699,80
500,62	27639,90
500,82	27899,48
501,02	27672,67
501,23	27895,89
501,43	27846,74
501,63	27915,35
501,83	28040,28
502,03	27756,12
502,24	28197,46
502,44	28084,31
502,64	28202,07
502,84	28189,78
503,05	28038,74
503,25	28374,10
503,45	28246,61
503,65	28443,21
503,85	28455,50
504,06	28463,69
504,26	28365,39
504,46	28758,60
504,66	28703,31
504,86	29028,42
505,06	28719,69
505,27	28810,82
505,47	29193,79
505,67	29197,38
505,87	29125,19
506,07	29281,35
506,28	29484,09
506,48	29303,36
506,68	29641,28
506,88	29355,58
507,08	29370,43
507,28	29694,52
507,49	29818,42
507,69	29780,03
507,89	29504,57
508,09	30167,09
508,29	29963,32
508,49	29951,03
508,70	30004,79
508,90	30172,21
509,10	29990,45
509,30	29793,85
509,50	30184,50
509,70	30330,42
509,91	30354,99
510,11	30537,26
510,31	30424,62
510,51	30401,58
510,71	30719,02
510,91	30689,32
511,11	30848,04
511,32	30777,39
511,52	30825,00
511,72	31092,26
511,92	31069,73
512,12	31033,38
512,32	30941,22
512,52	31264,80
512,73	31457,31
512,93	31409,70
513,13	31382,56
513,33	31694,36
513,53	31634,46
513,73	31985,18
513,93	31704,60
514,13	31883,29
514,34	32100,89
514,54	32053,27
514,74	32255,00
514,94	32376,34
515,14	32261,14
515,34	32453,65
515,54	32420,37
515,74	32656,91
515,94	32573,45
516,15	32949,26
516,35	32871,43
516,55	32943,63
516,75	33092,62
516,95	33293,32
517,15	33060,87
517,35	33109,00
517,55	33379,33
517,75	33487,87
517,95	33606,14
518,16	33655,81
518,36	33575,42
518,56	33719,81
518,76	33849,34
518,96	34059,26
519,16	33971,71
519,36	34018,30
519,56	33981,95
519,76	34252,79
519,96	34035,70
520,16	34549,74
520,37	34511,86
520,57	34637,81
520,77	34732,53
520,97	34896,88
521,17	34873,32
521,37	35044,84
521,57	34818,54
521,77	35043,31
521,97	34985,45
522,17	34948,59
522,37	35421,16
522,57	35196,39
522,77	35302,89
522,97	35568,10
523,17	35405,80
523,37	35586,53
523,58	35616,22
523,78	35749,34
523,98	36174,30
524,18	35665,89
524,38	36058,59
524,58	35977,69
524,78	35996,63
524,98	36421,08
525,18	36117,46
525,38	36165,59
525,58	36171,74
525,78	36642,26
525,98	36355,03
526,18	36640,21
526,38	36611,03
526,58	36745,68
526,78	36462,55
526,98	36754,90
527,18	36837,33
527,38	36847,05
527,58	37001,16
527,78	36871,12
527,98	37022,16
528,18	37071,82
528,38	36885,45
528,58	36970,96
528,78	37197,77
528,98	37254,09
529,18	37010,89
529,38	37238,73
529,58	37237,19
529,78	37348,81
529,98	37071,82
530,18	37476,29
530,38	37562,31
530,58	37466,56
530,78	37601,73
530,98	37374,41
531,18	37766,08
531,38	37868,48
531,58	38016,44
531,78	37918,14
531,98	37891,01
532,18	37966,78
532,38	38238,65
532,58	38009,79
532,78	37956,03
532,98	38517,17
533,18	38204,86
533,38	38179,26
533,58	38683,57
533,78	38410,17
533,98	38583,22
534,18	38472,63
534,38	38434,23
534,58	38787,50
534,78	38560,18
534,98	38863,79
535,18	38693,30
535,38	38880,69
535,58	38795,18
535,78	39001,00
535,98	38923,18
536,18	38924,21
536,38	38878,13
536,58	39365,03
536,78	39092,14
536,98	38963,12
537,18	39175,59
537,38	39156,65
537,58	39200,17
537,78	39612,32
537,98	39219,63
538,17	39436,20
538,37	39213,48
538,57	39515,05
538,77	39433,64
538,97	39509,93
539,17	39653,79
539,37	39542,69
539,57	39544,23
539,77	39864,22
539,97	39618,47
540,17	39506,34
540,37	39560,10
540,57	39632,80
540,77	39845,79
540,97	39802,78
541,16	39729,57
541,36	39783,84
541,56	39797,66
541,76	39754,66
541,96	39990,17
542,16	39729,06
542,36	39921,05
542,56	39659,43
542,76	40048,54
542,96	40120,22
543,16	39815,58
543,36	40006,56
543,55	40071,58
543,75	40474,01
543,95	40196,51
544,15	40059,29
544,35	39884,19
544,55	40438,68
544,75	40175,00
544,95	40388,50
545,15	40049,05
545,35	40567,19
545,54	40449,94
545,74	40315,29
545,94	40271,77
546,14	40590,23
546,34	40277,40
546,54	40521,62
546,74	40540,05
546,94	40405,91
547,14	40545,17
547,33	40661,40
547,53	40139,68
547,73	40346,52
547,93	40571,28
548,13	40322,46
548,33	40412,57
548,53	40745,87
548,72	40414,62
548,92	40909,71
549,12	40701,84
549,32	40694,68
549,52	40726,93
549,72	40812,95
549,92	40891,28
550,12	40595,35
550,31	41146,25
550,51	40362,90
550,71	41011,09
550,91	40874,38
551,11	40871,82
551,31	41008,53
551,50	40939,41
551,70	40857,49
551,90	41275,79
552,10	40803,73
552,30	40935,82
552,50	41130,38
552,70	41108,88
552,89	41012,11
553,09	41465,74
553,29	41214,86
553,49	41084,30
553,69	41568,13
553,88	41169,80
554,08	41083,28
554,28	41456,52
554,48	41076,62
554,68	41273,74
554,88	41190,80
555,07	41322,89
555,27	41268,11
555,47	41272,20
555,67	41435,53
555,87	41866,11
556,06	41291,66
556,26	41593,22
556,46	41671,56
556,66	41536,90
556,86	41531,78
557,06	41456,52
557,25	41728,39
557,45	41228,17
557,65	41876,87
557,85	41633,67
558,05	41418,12
558,24	41707,40
558,44	41962,37
558,64	42177,92
558,84	41916,80
559,03	41700,23
559,23	41779,07
559,43	42129,79
559,63	41870,72
559,83	41834,37
560,02	41912,70
560,22	42105,73
560,42	42464,12
560,62	42457,98
560,82	41914,24
561,01	41984,38
561,21	41870,21
561,41	42204,54
561,61	42137,98
561,80	42028,41
562,00	41934,21
562,20	42193,28
562,40	42697,59
562,59	42146,17
562,79	42332,54
562,99	42344,83
563,19	42514,30
563,38	42349,43
563,58	42442,62
563,78	42426,23
563,98	42423,16
564,17	42261,88
564,37	42555,77
564,57	42861,94
564,77	42501,50
564,96	42899,31
565,16	42727,28
565,36	42960,24
565,56	42799,47
565,75	42637,17
565,95	42806,64
566,15	42832,75
566,35	42745,20
566,54	43038,06
566,74	43407,21
566,94	43226,99
567,14	43025,78
567,33	43141,49
567,53	43333,48
567,73	43194,73
567,92	43236,20
568,12	43254,12
568,32	43160,43
568,52	43205,48
568,71	42921,84
568,91	43396,97
569,11	43663,72
569,30	43131,25
569,50	43605,35
569,70	43261,80
569,90	43195,24
570,09	43677,54
570,29	43736,42
570,49	43638,63
570,68	43612,01
570,88	43290,48
571,08	43751,78
571,27	43627,37
571,47	43601,77
571,67	43981,66
571,87	43811,17
572,06	43454,82
572,26	43998,56
572,46	43897,19
572,65	43719,52
572,85	43612,52
573,05	44285,28
573,24	43863,91
573,44	43716,96
573,64	43957,60
573,83	44035,94
574,03	43985,25
574,23	44537,18
574,42	44302,17
574,62	44624,22
574,82	44456,79
575,01	44177,76
575,21	44371,80
575,41	44718,93
575,60	44309,34
575,80	44318,56
576,00	44552,54
576,19	44567,38
576,39	44330,84
576,59	44808,02
576,78	44727,64
576,98	44611,42
577,18	45071,18
577,37	44968,79
577,57	44922,19
577,77	44982,61
577,96	44814,68
578,16	44884,31
578,35	44996,43
578,55	44855,64
578,75	45025,62
578,94	44404,57
579,14	44977,49
579,34	45112,66
579,53	44817,24
579,73	44959,57
579,93	44779,86
580,12	45016,91
580,32	44774,23
580,51	44917,59
580,71	45037,90
580,91	44788,56
581,10	45211,47
581,30	45037,90
581,50	45434,70
581,69	44905,81
581,89	45223,25
582,08	45280,59
582,28	44993,36
582,48	45343,05
582,67	44873,56
582,87	44990,80
583,06	45382,99
583,26	45334,86
583,46	45315,92
583,65	45067,60
583,85	45541,71
584,04	45510,99
584,24	45128,02
584,44	45273,42
584,63	45514,06
584,83	45215,57
585,02	45403,98
585,22	45384,01
585,42	45369,16
585,61	45065,04
585,81	45128,53
586,00	45317,96
586,20	45544,27
586,39	45251,41
586,59	45272,40
586,79	45602,12
586,98	44956,50
587,18	45194,06
587,37	45444,43
587,57	45265,74
587,76	45265,23
587,96	45435,72
588,16	45454,15
588,35	45184,33
588,55	44997,46
588,74	45496,14
588,94	45245,77
589,13	45374,28
589,33	45281,61
589,52	45116,24
589,72	45171,02
589,92	45188,43
590,11	45452,62
590,31	45140,30
590,50	45350,73
590,70	45245,77
590,89	45185,36
591,09	45376,33
591,28	45267,79
591,48	45197,13
591,67	45134,16
591,87	45499,21
592,06	45355,85
592,26	45128,02
592,46	45140,82
592,65	45327,18
592,85	45055,82
593,04	45527,88
593,24	45332,81
593,43	45038,42
593,63	45274,45
593,82	45373,26
594,02	45053,78
594,21	45570,38
594,41	45262,16
594,60	45158,73
594,80	45352,27
594,99	45211,47
595,19	45143,38
595,38	45562,70
595,58	45303,12
595,77	44908,88
595,97	45375,31
596,16	45489,48
596,36	45164,88
596,55	45420,36
596,75	45508,94
596,94	45279,05
597,14	45084,50
597,33	45205,84
597,53	45250,89
597,72	45515,59
597,92	45249,87
598,11	45368,14
598,31	45094,74
598,50	44941,14
598,70	45057,36
598,89	44960,59
599,09	44646,23
599,28	44996,95
599,48	44925,27
599,67	45195,60
599,87	44869,97
600,06	44813,65
600,26	44617,05
600,45	44750,17
600,64	44900,18
600,84	44560,22
601,03	44845,91
601,23	44861,78
601,42	44903,76
601,62	44747,09
601,81	44945,75
602,01	44918,10
602,20	44944,72
602,40	44840,79
602,59	44524,89
602,78	44834,13
602,98	44802,90
603,17	44874,07
603,37	44793,68
603,56	44910,42
603,76	44905,81
603,95	44880,21
604,15	44436,31
604,34	44631,89
604,53	44383,07
604,73	44701,53
604,92	44474,71
605,12	44849,49
605,31	44672,34
605,51	44766,55
605,70	44680,02
605,89	44701,01
606,09	44345,69
606,28	44595,54
606,48	44459,35
606,67	44397,91
606,87	44786,00
607,06	44475,23
607,25	44260,70
607,45	44743,51
607,64	44279,64
607,84	44629,85
608,03	44485,47
608,22	44613,46
608,42	44578,65
608,61	44432,73
608,81	44426,07
609,00	44252,00
609,19	44184,41
609,39	44226,91
609,58	44425,05
609,78	44411,74
609,97	44064,61
610,16	44261,21
610,36	44177,25
610,55	44235,10
610,75	44084,58
610,94	44005,22
611,13	44013,92
611,33	44289,37
611,52	44183,39
611,71	43607,40
611,91	44045,66
612,10	44101,47
612,30	43994,46
612,49	44064,61
612,68	44349,79
612,88	44000,10
613,07	44136,29
613,26	44452,19
613,46	44400,47
613,65	44278,62
613,84	44554,58
614,04	44339,04
614,23	44182,37
614,43	44788,56
614,62	44241,24
614,81	44515,67
615,01	44545,88
615,20	44591,45
615,39	44503,90
615,59	44346,20
615,78	44149,09
615,97	44472,67
616,17	44740,95
616,36	44515,16
616,55	44888,92
616,75	45039,95
616,94	45049,17
617,13	44966,23
617,33	45187,92
617,52	45230,41
617,71	45119,82
617,91	45280,59
618,10	45190,48
618,29	45138,26
618,49	45446,47
618,68	45459,27
618,87	45307,72
619,07	45707,08
619,26	45831,49
619,45	45959,49
619,65	45698,37
619,84	45774,15
620,03	46059,84
620,22	46274,88
620,42	45697,86
620,61	46142,27
620,80	46542,65
621,00	46627,13
621,19	46278,46
621,38	46749,49
621,58	46303,04
621,77	46431,04
621,96	46692,66
622,15	46576,95
622,35	46319,42
622,54	46501,69
622,73	47052,59
622,93	46868,28
623,12	46859,06
623,31	47086,90
623,50	47031,09
623,70	47366,96
623,89	47064,88
624,08	46970,16
624,28	47609,13
624,47	47668,52
624,66	47473,45
624,85	47779,11
625,05	47620,91
625,24	47865,64
625,43	48025,38
625,62	47620,39
625,82	47811,88
626,01	47714,09
626,20	47888,68
626,39	47950,12
626,59	48090,91
626,78	48267,04
626,97	48176,93
627,17	48211,74
627,36	48283,42
627,55	48119,07
627,74	48427,29
627,93	48485,15
628,13	48310,56
628,32	48386,33
628,51	48498,97
628,70	48558,36
628,90	48514,33
629,09	48664,35
629,28	48694,55
629,47	48776,98
629,67	48346,91
629,86	49011,99
630,05	48925,46
630,24	48929,05
630,44	48701,72
630,63	48968,98
630,82	48703,77
631,01	48961,30
631,20	48669,47
631,40	49035,54
631,59	48857,88
631,78	48654,11
631,97	48512,80
632,16	48876,31
632,36	48965,91
632,55	48741,14
632,74	49172,75
632,93	48916,25
633,13	48900,89
633,32	48922,90
633,51	48960,28
633,70	48888,09
633,89	48760,09
634,09	48827,16
634,28	48871,70
634,47	48909,59
634,66	48997,14
634,85	48607,51
635,04	48993,56
635,24	48668,44
635,43	48807,19
635,62	48684,83
635,81	48795,42
636,00	48772,89
636,20	49011,48
636,39	48916,76
636,58	48679,71
636,77	48717,59
636,96	48735,51
637,15	48733,46
637,35	48506,14
637,54	48233,25
637,73	48780,06
637,92	48437,02
638,11	48283,94
638,30	48403,74
638,50	48183,58
638,69	48415,52
638,88	48176,42
639,07	48196,90
639,26	48783,13
639,45	48035,11
639,64	48246,56
639,84	48633,11
640,03	47920,42
640,22	48097,57
640,41	48424,73
640,60	47912,23
640,79	47920,93
640,98	48217,38
641,18	47931,68
641,37	48281,38
641,56	48063,27
641,75	48242,46
641,94	47934,76
642,13	47968,04
642,32	47645,48
642,52	47760,68
642,71	47849,77
642,90	47609,64
643,09	47557,93
643,28	47897,89
643,47	47518,51
643,66	47902,50
643,85	47407,92
644,04	47826,73
644,24	47487,79
644,43	47547,18
644,62	47604,01
644,81	47446,32
645,00	47244,08
645,19	47397,16
645,38	47164,21
645,57	47295,28
645,76	47151,41
645,96	47161,65
646,15	47089,46
646,34	47289,13
646,53	46827,83
646,72	47352,62
646,91	46990,13
647,10	46755,13
647,29	46867,25
647,48	47329,58
647,67	46688,57
647,86	46788,92
648,05	46724,92
648,25	46569,27
648,44	46580,54
648,63	46612,79
648,82	46507,32
649,01	46306,11
649,20	46641,98
649,39	46409,02
649,58	46263,10
649,77	46293,31
649,96	46165,82
650,15	46279,49
650,34	46085,95
650,53	46239,04
650,72	45953,86
650,91	45922,12
651,11	46137,66
651,30	45983,55
651,49	46191,94
651,68	45971,78
651,87	45612,87
652,06	45867,33
652,25	45801,29
652,44	45606,22
652,63	45720,39
652,82	45790,53
653,01	46075,71
653,20	45510,47
653,39	45591,37
653,58	45622,09
653,77	45389,13
653,96	45519,69
654,15	45613,38
654,34	45686,09
654,53	45659,46
654,72	45645,13
654,91	45415,24
655,10	45487,95
655,29	45306,19
655,48	45437,26
655,67	45036,37
655,86	45411,66
656,05	45000,53
656,24	44960,59
656,43	45034,83
656,62	44880,21
656,81	44872,02
657,00	44950,35
657,19	44761,94
657,38	44779,86
657,57	44755,80
657,76	44734,29
657,95	44702,04
658,14	44598,10
658,33	44403,55
658,52	44338,01
658,71	44659,54
658,90	44249,44
659,09	44431,71
659,28	44041,06
659,47	44301,15
659,66	44373,34
659,85	44282,72
660,04	44300,12
660,23	44321,12
660,42	43833,19
660,61	44160,35
660,80	43697,00
660,99	43681,64
661,18	43998,05
661,37	44139,36
661,56	43944,80
661,75	44097,38
661,94	44141,92
662,13	44314,46
662,32	43752,29
662,51	43849,06
662,70	44117,34
662,89	43848,03
663,08	43644,77
663,27	43699,56
663,46	43368,30
663,65	43570,02
663,83	43341,67
664,02	43648,87
664,21	43443,05
664,40	43407,21
664,59	43519,34
664,78	43475,82
664,97	43595,62
665,16	42883,95
665,35	43374,44
665,54	43263,85
665,73	43452,78
665,92	43287,92
666,11	43161,97
666,30	43218,28
666,49	42905,46
666,67	43020,14
666,86	42794,35
667,05	42917,23
667,24	42841,97
667,43	42916,72
667,62	42682,23
667,81	42417,02
668,00	42907,51
668,19	42241,40
668,38	42392,44
668,57	42579,32
668,76	42434,42
668,94	42412,41
669,13	42064,77
669,32	42522,49
669,51	42216,83
669,70	42365,31
669,89	42690,93
670,08	42370,94
670,27	42292,60
670,46	42582,39
670,64	42148,22
670,83	42464,63
671,02	42202,49
671,21	42314,11
671,40	42135,93
671,59	42443,64
671,78	42267,00
671,97	42067,84
672,16	41896,32
672,34	41970,56
672,53	42292,09
672,72	42018,69
672,91	42062,21
673,10	41998,21
673,29	42062,21
673,48	41999,23
673,66	41666,44
673,85	41988,48
674,04	41546,12
674,23	41624,96
674,42	41654,66
674,61	41830,27
674,80	41511,81
674,98	41574,79
675,17	41509,77
675,36	41513,35
675,55	41490,82
675,74	41552,26
675,93	41258,89
676,12	41359,75
676,30	41505,16
676,49	41663,36
676,68	41455,50
676,87	41253,26
677,06	41592,20
677,25	41298,83
677,43	41567,62
677,62	41511,81
677,81	41359,75
678,00	41298,31
678,19	41404,30
678,37	41384,33
678,56	41277,83
678,75	42035,58
678,94	41024,40
679,13	41386,89
679,32	41441,16
679,50	41144,72
679,69	41298,83
679,88	40974,73
680,07	41161,10
680,26	40934,80
680,44	40934,29
680,63	40950,16
680,82	40737,17
681,01	40970,13
681,20	40974,73
681,38	40909,71
681,57	40630,16
681,76	40946,58
681,95	40530,33
682,14	40848,78
682,32	40631,19
682,51	40660,88
682,70	40386,46
682,89	40598,42
683,07	40669,08
683,26	40611,22
683,45	40766,87
683,64	40547,22
683,83	40388,50
684,01	40333,72
684,20	40618,90
684,39	40538,01
684,58	40517,53
684,76	40391,58
684,95	40143,26
685,14	40548,76
685,33	40276,38
685,52	40477,59
685,70	40403,35
685,89	40259,99
686,08	40496,02
686,27	40397,21
686,45	40121,76
686,64	40077,72
686,83	40423,83
687,02	40328,60
687,20	40580,50
687,39	40179,10
687,58	40307,10
687,76	40193,43
687,95	40051,10
688,14	40392,09
688,33	40066,46
688,51	40500,63
688,70	39910,82
688,89	40075,16
689,08	39933,34
689,26	39834,53
689,45	39856,03
689,64	40102,30
689,83	39815,07
690,01	39984,03
690,20	39683,49
690,39	39961,50
690,57	39668,13
690,76	39672,23
690,95	39570,34
691,14	39523,75
691,32	39666,08
691,51	39364,01
691,70	39514,02
691,88	39713,70
692,07	39902,11
692,26	39585,70
692,44	39583,14
692,63	39520,16
692,82	39435,17
693,01	39525,28
693,19	39454,12
693,38	39471,01
693,57	39415,72
693,75	39655,84
693,94	39202,73
694,13	39491,49
694,31	39395,75
694,50	39581,09
694,69	38972,33
694,87	39473,57
695,06	39209,39
695,25	39471,53
695,43	39376,81
695,62	39084,46
695,81	38908,33
695,99	39103,40
696,18	39281,06
696,37	38985,65
696,55	39154,09
696,74	38892,46
696,93	39323,56
697,11	39226,79
697,30	38943,15
697,49	39071,15
697,67	38923,18
697,86	38949,29
698,05	38950,32
698,23	38977,45
698,42	39004,59
698,61	38716,34
698,79	38929,33
698,98	38755,25
699,17	38843,82
699,35	38763,44
699,54	38705,07
699,72	38691,25
699,91	38891,44
700,10	38661,04
700,28	38567,35
700,47	38319,54
700,66	38437,30
700,84	38422,97
701,03	38625,20
701,21	38535,60
701,40	38448,05
701,59	38479,80
701,77	38262,20
701,96	38604,21
702,15	38477,24
702,33	38501,81
702,52	38389,69
702,70	38402,49
702,89	38208,44
703,08	38187,45
703,26	38125,50
703,45	38219,19
703,63	38361,53
703,82	38350,77
704,01	38092,22
704,19	38109,63
704,38	38050,75
704,56	38320,06
704,75	38006,72
704,94	37915,07
705,12	37893,05
705,31	38016,96
705,49	37955,52
705,68	37608,39
705,86	38138,30
706,05	37555,14
706,24	38021,05
706,42	37593,54
706,61	37824,96
706,79	37834,69
706,98	37256,14
707,17	37632,45
707,35	37778,88
707,54	37482,44
707,72	37605,83
707,91	37295,56
708,09	37616,07
708,28	37620,16
708,46	37549,51
708,65	37756,86
708,84	37609,41
709,02	37343,69
709,21	37644,74
709,39	37424,58
709,58	37220,81
709,76	37397,45
709,95	37444,04
710,13	37159,88
710,32	37091,27
710,50	37379,01
710,69	37042,63
710,88	37289,42
711,06	36763,09
711,25	37092,81
711,43	36874,70
711,62	36947,40
711,80	36997,07
711,99	36744,66
712,17	36723,15
712,36	36867,53
712,54	36707,79
712,73	36767,69
712,91	36506,58
713,10	36739,54
713,28	36676,05
713,47	36576,72
713,65	36671,44
713,84	36345,81
714,02	36551,12
714,21	36420,56
714,39	36545,49
714,58	36450,77
714,76	36281,30
714,95	36194,26
715,13	36283,86
715,32	36266,97
715,50	35966,43
715,69	36318,17
715,87	35851,74
716,06	35934,17
716,24	35957,72
716,43	35639,78
716,61	35929,05
716,80	35763,17
716,98	35746,27
717,17	35766,24
717,35	35614,18
717,54	35636,70
717,72	35488,23
717,91	35333,60
718,09	35333,60
718,28	35488,23
718,46	35213,29
718,65	35370,47
718,83	35238,89
719,01	35242,98
719,20	34830,83
719,38	35163,11
719,57	34812,91
719,75	34715,12
719,94	34912,24
720,12	34707,44
720,31	34769,90
720,49	34491,38
720,68	34689,01
720,86	34503,67
721,04	34732,01
721,23	34482,16
721,41	34029,05
721,60	34379,25
721,78	34176,50
721,97	34182,65
722,15	33996,28
722,34	34064,89
722,52	33924,09
722,70	34041,34
722,89	34051,58
723,07	33831,93
723,26	33969,66
723,44	33720,83
723,63	33480,19
723,81	33512,45
723,99	33656,32
724,18	33631,23
724,36	33612,29
724,55	33628,67
724,73	33404,42
724,91	33319,94
725,10	33372,16
725,28	33246,21
725,47	33611,26
725,65	33302,53
725,83	33538,56
726,02	33385,47
726,20	33265,16
726,39	33099,78
726,57	33113,09
726,75	33092,10
726,94	32943,11
727,12	33333,25
727,31	32797,20
727,49	33105,93
727,67	32790,54
727,86	32776,72
728,04	32563,22
728,23	32734,22
728,41	32414,23
728,59	32493,07
728,78	32679,95
728,96	32782,86
729,14	32242,20
729,33	32450,06
729,51	32041,50
729,69	32193,56
729,88	32096,79
730,06	32000,54
730,25	32214,04
730,43	31670,81
730,61	31985,69
730,80	32070,68
730,98	32074,26
731,16	31975,96
731,35	31710,24
731,53	31883,29
731,71	31730,20
731,90	31731,74
732,08	32040,47
732,26	31630,88
732,45	31663,64
732,63	31844,89
732,81	31512,61
733,00	31548,96
733,18	31380,00
733,36	31522,85
733,55	31301,15
733,73	31253,03
733,91	31135,27
734,10	31233,57
734,28	31126,57
734,46	31434,78
734,65	31068,20
734,83	31159,84
735,01	31015,46
735,20	31213,60
735,38	30963,75
735,56	31121,45
735,75	30925,86
735,93	30647,85
736,11	31026,21
736,30	30912,55
736,48	30467,63
736,66	30756,39
736,84	30718,51
737,03	30408,24
737,21	30368,82
737,39	30324,27
737,58	30281,27
737,76	30267,95
737,94	29986,36
738,12	30221,87
738,31	30087,73
738,49	30166,07
738,67	29969,97
738,86	29796,41
739,04	29939,77
739,22	30042,17
739,40	29732,41
739,59	29848,63
739,77	29791,29
739,95	29795,90
740,14	29592,64
740,32	29589,05
740,50	29308,48
740,68	29452,35
740,87	29450,30
741,05	29376,06
741,23	29211,71
741,41	29243,46
741,60	29104,71
741,78	29233,73
741,96	28981,83
742,14	29076,55
742,33	29100,61
742,51	29161,03
742,69	28838,47
742,87	28815,94
743,06	28620,36
743,24	28650,57
743,42	28602,44
743,60	28629,58
743,79	28427,85
743,97	28474,45
744,15	28447,31
744,33	28417,61
744,52	28118,10
744,70	28222,03
744,88	28233,30
745,06	28421,71
745,24	28232,27
745,43	28225,11
745,61	28098,64
745,79	27931,73
745,97	28158,55
746,16	27998,29
746,34	27890,77
746,52	28014,16
746,70	27637,85
746,88	27665,50
747,07	27841,11
747,25	27601,50
747,43	27462,24
747,61	27426,40
747,79	27423,84
747,98	27320,93
748,16	27506,27
748,34	27371,61
748,52	27178,08
748,70	27188,83
748,89	27371,61
749,07	26958,44
749,25	27293,79
749,43	27098,72
749,61	26996,32
749,79	27470,94
749,98	27068,51
750,16	27150,95
750,34	26816,61
750,52	27333,73
750,70	26958,95
750,88	27299,94
751,07	27156,07
751,25	27253,34
751,43	26981,48
751,61	26876,52
751,79	27067,49
751,97	27184,23
752,16	26925,16
752,34	27059,81
752,52	26894,44
752,70	27125,35
752,88	27131,49
753,06	26979,94
753,25	26888,29
753,43	27058,28
753,61	26981,99
753,79	27307,62
753,97	26983,52
754,15	27163,75
754,33	26828,90
754,52	27370,59
754,70	27132,00
754,88	27203,17
755,06	27102,82
755,24	27423,84
755,42	27185,76
755,60	27448,93
755,78	27411,55
755,97	27549,79
756,15	27243,62
756,33	27403,87
756,51	27629,66
756,69	27565,66
756,87	27526,75
757,05	27789,40
757,23	27561,56
757,41	27617,37
757,60	27747,93
757,78	27661,40
757,96	27744,34
758,14	27822,68
758,32	27942,49
758,50	28023,89
758,68	28073,04
758,86	27993,17
759,04	27856,98
759,22	28058,71
759,41	28009,56
759,59	28088,40
759,77	28131,41
759,95	27969,11
760,13	27812,95
760,31	28048,47
760,49	27986,00
760,67	28134,48
760,85	28142,16
761,03	28279,38
761,21	28240,47
761,39	28427,34
761,57	28467,28
761,76	28546,64
761,94	28443,73
762,12	28367,95
762,30	28366,42
762,48	28643,40
762,66	28592,72
762,84	28517,96
763,02	28621,39
763,20	28553,80
763,38	28399,18
763,56	28425,29
763,74	28467,28
763,92	28477,01
764,10	28446,80
764,28	28503,12
764,46	28515,40
764,64	28406,35
764,82	28524,11
765,00	28672,59
765,19	28439,12
765,37	28733,00
765,55	28527,18
765,73	28553,80
765,91	28555,34
766,09	28513,36
766,27	28550,22
766,45	28380,24
766,63	28313,68
766,81	28390,48
766,99	28196,95
767,17	28204,11
767,35	28225,62
767,53	28289,10
767,71	28370,51
767,89	28176,98
768,07	28352,59
768,25	28041,30
768,43	28088,92
768,61	28142,67
768,79	28101,72
768,97	28124,24
769,15	27941,46
769,33	28051,03
769,51	27755,61
769,69	27707,48
769,87	27703,90
770,05	27650,65
770,23	27642,46
770,41	27595,87
770,59	27537,50
770,77	27513,44
770,95	27349,09
771,13	27275,87
771,31	27311,20
771,49	27144,80
771,67	26987,62
771,85	27446,37
772,03	27210,85
772,21	27042,40
772,38	26900,58
772,56	26972,26
772,74	26799,72
772,92	26629,74
773,10	26594,92
773,28	26789,99
773,46	26513,00
773,64	26542,70
773,82	26473,07
774,00	26716,26
774,18	26262,64
774,36	26250,86
774,54	26262,64
774,72	26236,02
774,90	26053,23
775,08	26297,97
775,26	26113,14
775,44	26050,67
775,62	25738,36
775,80	25878,13
775,97	25624,70
776,15	25916,53
776,33	25666,17
776,51	25441,92
776,69	25541,24
776,87	25682,55
777,05	25527,42
777,23	25536,63
777,41	25056,39
777,59	25217,15
777,77	24966,28
777,95	25474,17
778,13	25068,16
778,30	25064,58
778,48	24860,80
778,66	25147,01
778,84	24833,67
779,02	24732,29
779,20	24799,37
779,38	24960,13
779,56	24498,31
779,74	24620,68
779,92	24336,52
780,09	24455,31
780,27	24372,88
780,45	24381,58
780,63	24346,25
780,81	24350,35
780,99	24252,56
781,17	24210,06
781,35	23990,42
781,52	24078,99
781,70	24005,27
781,88	23917,20
782,06	23858,84
782,24	23767,19
782,42	23668,89
782,60	23600,28
782,78	23530,65
782,95	23493,27
783,13	23318,17
783,31	23277,21
783,49	23302,30
783,67	23211,68
783,85	23179,42
784,03	22924,45
784,20	22803,62
784,38	22940,83
784,56	22826,66
784,74	22823,59
784,92	22747,81
785,10	22679,72
785,28	22540,46
785,45	22812,32
785,63	22383,79
785,81	22510,25
785,99	22199,47
786,17	22571,18
786,35	22158,00
786,52	22218,92
786,70	22149,29
786,88	22151,34
787,06	22033,07
787,24	22245,04
787,41	21846,19
787,59	21964,98
787,77	21736,12
787,95	21730,48
788,13	21798,07
788,31	21676,73
788,48	21678,26
788,66	21645,49
788,84	21667,00
789,02	21616,82
789,20	21539,51
789,37	21414,59
789,55	21415,61
789,73	21167,29
789,91	21244,09
790,09	21154,49
790,26	21008,06
790,44	21090,49
790,62	20915,90
790,80	21024,96
790,98	20903,11
791,15	20863,68
791,33	20924,10
791,51	20672,71
791,69	20467,91
791,86	20749,51
792,04	20433,61
792,22	20553,93
792,40	20434,12
792,58	20463,82
792,75	20403,91
792,93	20385,99
793,11	20257,48
793,29	20173,00
793,46	20189,90
793,64	20094,16
793,82	19948,24
794,00	19919,06
794,17	20073,68
794,35	19753,68
794,53	19653,33
794,71	19679,96
794,88	19591,89
795,06	19593,43
795,24	19583,19
795,42	19608,79
795,59	19295,96
795,77	19376,86
795,95	19350,74
796,13	19296,99
796,30	19251,93
796,48	19214,04
796,66	19205,34
796,83	19300,06
797,01	18979,04
797,19	19134,68
797,37	19051,23
797,54	18996,96
797,72	18770,15
797,90	18909,92
798,08	18623,72
798,25	18662,12
798,43	18785,51
798,61	18656,48
798,78	18650,85
798,96	18646,76
799,14	18473,19
799,31	18647,78
799,49	18332,90
799,67	18299,11
799,85	18357,99
800,02	18283,24
800,20	17996,53
800,38	18073,32
800,55	17975,02
800,73	17962,73
800,91	17941,23
801,08	18049,26
801,26	17885,94
801,44	17883,38
801,61	17788,14
801,79	17802,48
801,97	17565,43
802,15	17797,87
802,32	17462,01
802,50	17771,25
802,68	17601,78
802,85	17768,18
803,03	17472,25
803,21	17516,79
803,38	17472,76
803,56	17544,44
803,74	17207,03
803,91	17252,60
804,09	17268,47
804,26	17354,49
804,44	17225,47
804,62	17174,78
804,79	17313,02
804,97	17150,71
805,15	16913,66
805,32	17027,84
805,50	16985,34
805,68	16990,97
805,85	16958,72
806,03	17062,65
806,21	16793,34
806,38	16936,70
806,56	16708,87
806,73	16793,34
806,91	16652,03
807,09	16573,70
807,26	16592,13
807,44	16748,29
807,62	16523,01
807,79	16526,60
807,97	16399,62
808,14	16473,86
808,32	16371,97
808,50	16309,51
808,67	16240,39
808,85	16402,18
809,02	16211,21
809,20	16177,93
809,38	16086,79
809,55	15864,59
809,73	15891,21
809,90	15969,04
810,08	16039,69
810,26	15971,60
810,43	15919,37
810,61	15765,78
810,78	15872,27
810,96	15657,23
811,14	15513,36
811,31	15709,46
811,49	15486,74
811,66	15670,03
811,84	15573,27
812,02	15601,43
812,19	15433,49
812,37	15406,87
812,54	15347,48
812,72	15316,76
812,89	15345,94
813,07	15352,60
813,25	15200,54
813,42	15254,81
813,60	15233,82
813,77	15244,06
813,95	15069,47
814,12	14977,31
814,30	14949,66
814,47	14831,39
814,65	14922,01
814,83	14926,11
815,00	14754,08
815,18	14829,85
815,35	14600,99
815,53	14812,96
815,70	14573,86
815,88	14727,46
816,05	14638,88
816,23	14461,22
816,40	14428,96
816,58	14431,52
816,75	14339,37
816,93	14412,07
817,10	14251,30
817,28	14343,97
817,46	14177,06
817,63	14096,17
817,81	14155,05
817,98	14128,94
818,16	14063,91
818,33	14092,07
818,51	13926,70
818,68	14051,63
818,86	14120,74
819,03	13994,79
819,21	13887,28
819,38	13914,41
819,56	13758,77
819,73	13760,30
819,91	13758,25
820,08	13770,03
820,26	13615,92
820,43	13821,74
820,61	13426,48
820,78	13406,00
820,96	13350,20
821,13	13470,51
821,31	13474,10
821,48	13375,80
821,66	13387,57
821,83	13398,84
822,00	13270,33
822,18	13395,76
822,35	13168,44
822,53	13223,73
822,70	13054,78
822,88	13161,78
823,05	13112,63
823,23	13052,73
823,40	12945,21
823,58	13048,12
823,75	12842,81
823,93	12894,52
824,10	12714,81
824,28	12773,69
824,45	12859,71
824,62	12779,84
824,80	12808,00
824,97	12731,20
825,15	12738,37
825,32	12602,69
825,50	12619,58
825,67	12533,57
825,85	12620,10
826,02	12512,07
826,19	12518,72
826,37	12588,35
826,54	12359,49
826,72	12364,61
826,89	12328,26
827,07	12322,63
827,24	12428,61
827,41	12354,88
827,59	12273,48
827,76	12224,33
827,94	12211,01
828,11	12254,02
828,28	12200,77
828,46	12071,75
828,63	12057,93
828,81	12052,81
828,98	12024,14
829,15	12087,62
829,33	11856,20
829,50	11823,44
829,68	11678,54
829,85	11769,16
830,02	11844,94
830,20	11642,19
830,37	11681,10
830,55	11696,97
830,72	11682,13
830,89	11533,65
831,07	11566,42
831,24	11645,77
831,42	11476,30
831,59	11318,61
831,76	11334,48
831,94	11451,22
832,11	11387,22
832,28	11436,37
832,46	11305,81
832,63	11216,72
832,81	11223,89
832,98	11136,85
833,15	11148,12
833,33	11104,09
833,50	11060,06
833,67	11121,49
833,85	11049,30
834,02	10976,09
834,19	10848,09
834,37	10985,82
834,54	10899,80
834,71	10803,04
834,89	10982,23
835,06	10754,40
835,23	10714,46
835,41	10707,80
835,58	10648,93
835,75	10653,53
835,93	10544,48
836,10	10622,30
836,27	10594,65
836,45	10707,80
836,62	10620,25
836,79	10707,80
836,97	10468,19
837,14	10516,83
837,31	10564,96
837,49	10454,88
837,66	10365,28
837,83	10417,51
838,01	10335,07
838,18	10332,51
838,35	10233,70
838,53	10341,73
838,70	10172,26
838,87	10325,86
839,04	10069,35
839,22	10297,19
839,39	10069,86
839,56	10101,09
839,74	10270,05
839,91	9998,18
840,08	10082,15
840,26	10065,25
840,43	10008,42
840,60	10003,82
840,77	9941,35
840,95	9998,18
841,12	9924,46
841,29	9863,53
841,46	9847,15
841,64	9946,98
841,81	9767,27
841,98	9795,95
842,16	9610,09
842,33	9682,80
842,50	9614,70
842,67	9564,53
842,85	9589,61
843,02	9675,12
843,19	9540,97
843,36	9416,05
843,54	9455,98
843,71	9438,58
843,88	9359,73
844,05	9279,86
844,23	9379,70
844,40	9287,03
844,57	9165,68
844,74	9358,71
844,92	9230,71
845,09	9125,75
845,26	9108,34
845,43	9068,92
845,61	9122,68
845,78	9144,18
845,95	9027,45
846,12	9145,20
846,29	9027,45
846,47	9120,63
846,64	8914,30
846,81	8814,46
846,98	8838,01
847,16	8969,08
847,33	8770,94
847,50	8847,74
847,67	8782,20
847,84	8786,30
848,02	8669,56
848,19	8722,81
848,36	8721,27
848,53	8748,92
848,70	8707,45
848,88	8675,71
849,05	8675,71
849,22	8568,19
849,39	8445,31
849,56	8466,30
849,74	8483,71
849,91	8582,53
850,08	8518,01
850,25	8478,59
850,42	8534,40
850,60	8424,32
850,77	8452,48
850,94	8393,09
851,11	8411,52
851,28	8275,84
851,45	8412,54
851,63	8334,72
851,80	8359,81
851,97	8314,24
852,14	8297,86
852,31	8318,34
852,48	8148,87
852,66	8213,89
852,83	8180,61
853,00	8241,03
853,17	8138,63
853,34	8222,08
853,51	8173,96
853,68	8132,48
853,86	8036,74
854,03	8077,19
854,20	7987,59
854,37	7990,15
854,54	8137,60
854,71	7980,93
854,88	7978,37
855,06	8060,29
855,23	7947,14
855,40	7880,58
855,57	7817,61
855,74	7786,89
855,91	7867,27
856,08	7792,01
856,25	7826,31
856,43	7597,45
856,60	7698,83
856,77	7736,20
856,94	7636,88
857,11	7647,12
857,28	7554,96
857,45	7643,02
857,62	7453,07
857,79	7546,25
857,97	7545,74
858,14	7511,44
858,31	7516,56
858,48	7480,72
858,65	7384,46
858,82	7337,36
858,99	7398,80
859,16	7250,83
859,33	7229,33
859,50	7333,26
859,67	7199,12
859,85	7259,54
860,02	7160,72
860,19	7171,47
860,36	7011,73
860,53	7157,65
860,70	7104,40
860,87	7056,79
861,04	7060,37
861,21	7087,00
861,38	7069,59
861,55	6996,37
861,72	6934,93
861,89	6921,11
862,06	6879,64
862,23	6953,37
862,41	6892,44
862,58	6897,05
862,75	6842,26
862,92	6835,10
863,09	6721,95
863,26	6685,08
863,43	6719,39
863,60	6734,23
863,77	6728,09
863,94	6779,80
864,11	6756,25
864,28	6587,80
864,45	6555,04
864,62	6751,64
864,79	6692,25
864,96	6669,72
865,13	6642,07
865,30	6594,97
865,47	6581,15
865,64	6473,12
865,81	6391,20
865,98	6505,88
866,15	6454,69
866,32	6479,77
866,49	6460,32
866,66	6523,29
866,83	6381,98
867,00	6417,82
867,17	6368,16
867,34	6293,41
867,51	6451,10
867,68	6208,93
867,85	6392,22
868,02	6297,50
868,19	6284,70
868,36	6283,17
868,53	6266,78
868,70	6123,43
868,87	6063,52
869,04	6192,03
869,21	6181,79
869,38	6173,60
869,55	6080,42
869,72	6106,53
869,89	5956,01
870,06	5916,07
870,23	5920,68
870,40	5978,53
870,57	5982,63
870,74	5843,37
870,91	5945,77
871,08	5803,43
871,25	5808,04
871,42	5887,40
871,59	5850,02
871,76	5786,54
871,93	5657,51
872,10	5775,78
872,27	5744,55
872,44	5688,75
872,60	5613,99
872,77	5658,54
872,94	5605,80
873,11	5599,66
873,28	5548,97
873,45	5582,25
873,62	5520,81
873,79	5506,99
873,96	5367,73
874,13	5503,92
874,30	5300,14
874,47	5455,28
874,64	5371,31
874,81	5317,04
874,97	5330,35
875,14	5357,49
875,31	5238,19
875,48	5306,29
875,65	5252,53
875,82	5298,10
875,99	5295,54
876,16	5334,45
876,33	5297,58
876,50	5232,56
876,67	5116,34
876,83	5149,62
877,00	5118,39
877,17	5240,24
877,34	5057,97
877,51	5093,81
877,68	5019,06
877,85	4987,83
878,02	4971,44
878,19	4995,51
878,35	4972,98
878,52	5040,05
878,69	4981,68
878,86	4951,48
879,03	4922,29
879,20	5006,77
879,37	4998,58
879,54	4862,90
879,70	4959,16
879,87	4827,57
880,04	4847,54
880,21	4778,94
880,38	4865,46
880,55	4807,61
880,72	4834,23
880,89	4696,50
881,05	4885,43
881,22	4688,82
881,39	4686,78
881,56	4698,04
881,73	4589,50
881,90	4701,62
882,06	4646,84
882,23	4573,11
882,40	4554,17
882,57	4614,07
882,74	4609,47
882,91	4649,91
883,07	4417,98
883,24	4569,02
883,41	4461,50
883,58	4428,73
883,75	4498,36
883,92	4395,96
884,08	4368,32
884,25	4337,09
884,42	4326,33
884,59	4422,59
884,76	4325,82
884,92	4265,41
885,09	4306,88
885,26	4276,16
885,43	4260,29
885,60	4290,49
885,76	4232,64
885,93	4256,19
886,10	4172,74
886,27	4213,18
886,44	4185,02
886,60	4250,05
886,77	4157,89
886,94	4114,37
887,11	4049,35
887,28	4069,31
887,44	4128,70
887,61	4023,23
887,78	4051,91
887,95	3936,71
888,12	4037,06
888,28	3990,47
888,45	3983,30
888,62	3893,19
888,79	3867,08
888,95	3877,83
889,12	3907,01
889,29	3949,00
889,46	3821,00
889,62	3876,80
889,79	3877,83
889,96	3848,65
890,13	3756,49
890,29	3829,19
890,46	3724,74
890,63	3734,47
890,80	3657,16
890,96	3697,61
891,13	3648,46
891,30	3643,34
891,47	3596,23
891,63	3715,53
891,80	3653,58
891,97	3591,11
892,14	3556,81
892,30	3549,13
892,47	3574,73
892,64	3551,69
892,80	3486,15
892,97	3509,19
893,14	3396,04
893,31	3486,15
893,47	3360,72
893,64	3469,26
893,81	3377,61
893,97	3395,53
894,14	3245,01
>>>>>End Processed Spectral Data<<<<<
