SpectraSuite Datei
++++++++++++++++++++++++++++++++++++
Datum: Mon Dec 11 15:11:13 CET 2017
Benutzer: Praktikum-Pc1
Dark-Spektrum vorhanden: Ja
Referenz-Spektrum vorhanden: Nein
Zahl der probierten Teilspektren: 1
Spektrometer: USB4H10187
Integrationszeit (usec): 150000 (USB4H10187)
Spektren Durchschnitt berechnet: 4 (USB4H10187)
Boxcar Glättung: 0 (USB4H10187)
Dunkelstromkorrektur: Nein (USB4H10187)
Puls/Lampe aktiviert: Nein (USB4H10187)
Correct for Detector Non-linearity: Nein (USB4H10187)
Streulichtkorrektur: Nein (USB4H10187)
Anzahl Pixel in verarbeitetem Spektrum: 3648
>>>>>Begin Processed Spectral Data<<<<<
176,80	-45,06
177,02	-45,06
177,24	-45,06
177,46	4,10
177,68	34,82
177,91	156,16
178,13	141,82
178,35	131,07
178,57	82,94
178,79	165,89
179,02	233,47
179,24	49,15
179,46	140,29
179,68	78,33
179,90	95,23
180,12	157,18
180,35	142,85
180,57	64,51
180,79	142,85
181,01	164,35
181,23	142,85
181,46	195,58
181,68	225,79
181,90	168,96
182,12	213,50
182,34	209,40
182,56	138,75
182,79	144,89
183,01	160,25
183,23	154,11
183,45	177,66
183,67	127,49
183,89	165,89
184,12	184,83
184,34	134,65
184,56	193,53
184,78	171,52
185,00	225,79
185,22	108,54
185,45	112,13
185,67	220,67
185,89	211,45
186,11	130,05
186,33	193,53
186,55	230,40
186,77	196,09
187,00	195,58
187,22	219,64
187,44	155,65
187,66	150,01
187,88	96,77
188,10	250,88
188,32	123,39
188,55	173,57
188,77	252,92
188,99	120,32
189,21	185,85
189,43	163,33
189,65	135,17
189,87	188,93
190,10	265,72
190,32	219,64
190,54	165,89
190,76	194,05
190,98	165,37
191,20	221,69
191,42	167,42
191,64	135,17
191,87	148,99
192,09	186,37
192,31	165,89
192,53	184,83
192,75	167,42
192,97	207,87
193,19	159,23
193,41	124,41
193,64	236,03
193,86	91,65
194,08	191,49
194,30	115,71
194,52	209,92
194,74	219,64
194,96	83,45
195,18	193,02
195,40	150,01
195,63	164,86
195,85	75,77
196,07	66,56
196,29	159,74
196,51	158,72
196,73	213,50
196,95	197,12
197,17	117,25
197,39	215,04
197,61	216,57
197,84	189,95
198,06	149,50
198,28	167,93
198,50	100,35
198,72	195,58
198,94	222,20
199,16	184,83
199,38	247,29
199,60	118,27
199,82	146,43
200,04	171,52
200,26	188,93
200,49	113,15
200,71	76,80
200,93	181,76
201,15	156,67
201,37	130,05
201,59	139,26
201,81	209,40
202,03	290,81
202,25	119,81
202,47	122,88
202,69	163,84
202,91	177,66
203,13	129,02
203,35	179,20
203,58	83,97
203,80	231,93
204,02	150,53
204,24	66,05
204,46	158,21
204,68	208,38
204,90	148,48
205,12	200,19
205,34	140,80
205,56	195,07
205,78	211,96
206,00	163,84
206,22	121,34
206,44	214,52
206,66	136,19
206,88	222,72
207,10	131,58
207,32	243,71
207,54	212,99
207,76	169,47
207,99	161,79
208,21	172,54
208,43	236,54
208,65	121,34
208,87	230,40
209,09	174,08
209,31	149,50
209,53	109,05
209,75	215,55
209,97	174,59
210,19	123,90
210,41	193,53
210,63	177,66
210,85	161,28
211,07	242,68
211,29	161,28
211,51	210,94
211,73	207,87
211,95	198,14
212,17	178,17
212,39	210,43
212,61	169,98
212,83	98,30
213,05	178,69
213,27	237,05
213,49	137,21
213,71	169,47
213,93	187,39
214,15	272,89
214,37	232,96
214,59	200,19
214,81	126,46
215,03	144,89
215,25	209,40
215,47	220,67
215,69	173,05
215,91	184,32
216,13	153,09
216,35	182,78
216,57	139,26
216,79	200,19
217,01	216,06
217,23	180,73
217,45	188,41
217,67	240,12
217,89	256,51
218,11	203,26
218,33	162,30
218,55	196,60
218,77	212,48
218,99	159,23
219,21	192,00
219,43	155,65
219,65	204,80
219,87	250,88
220,09	206,33
220,31	117,76
220,53	154,62
220,75	136,70
220,97	119,81
221,19	157,69
221,41	134,14
221,63	152,06
221,85	216,06
222,06	197,63
222,28	195,58
222,50	187,90
222,72	200,70
222,94	132,09
223,16	150,53
223,38	248,83
223,60	132,09
223,82	188,93
224,04	250,36
224,26	181,76
224,48	152,57
224,70	227,84
224,92	155,65
225,14	166,91
225,36	223,74
225,58	136,70
225,80	226,30
226,02	189,95
226,24	136,70
226,45	153,09
226,67	160,77
226,89	124,93
227,11	161,79
227,33	178,69
227,55	118,78
227,77	168,45
227,99	140,29
228,21	174,59
228,43	180,73
228,65	173,57
228,87	222,20
229,09	78,85
229,31	111,10
229,52	152,57
229,74	134,14
229,96	241,66
230,18	141,82
230,40	191,49
230,62	185,85
230,84	243,20
231,06	60,93
231,28	156,16
231,50	128,00
231,72	181,25
231,94	161,79
232,15	186,37
232,37	126,97
232,59	135,17
232,81	250,36
233,03	166,40
233,25	197,63
233,47	163,84
233,69	183,81
233,91	181,76
234,13	84,48
234,34	135,17
234,56	187,90
234,78	252,41
235,00	116,73
235,22	164,35
235,44	119,29
235,66	134,65
235,88	155,13
236,10	218,11
236,31	164,35
236,53	225,28
236,75	225,28
236,97	144,89
237,19	242,17
237,41	225,79
237,63	243,71
237,85	168,45
238,07	207,36
238,28	171,01
238,50	186,88
238,72	183,29
238,94	206,33
239,16	174,59
239,38	152,57
239,60	213,50
239,81	110,08
240,03	186,37
240,25	139,26
240,47	225,28
240,69	124,41
240,91	197,63
241,13	307,20
241,34	184,83
241,56	206,33
241,78	177,15
242,00	144,89
242,22	142,85
242,44	239,61
242,66	151,04
242,87	162,81
243,09	218,11
243,31	145,41
243,53	145,92
243,75	228,86
243,97	194,56
244,19	202,24
244,40	236,03
244,62	158,72
244,84	302,59
245,06	167,42
245,28	168,45
245,50	243,20
245,71	257,53
245,93	141,82
246,15	193,53
246,37	241,66
246,59	279,04
246,81	202,24
247,02	147,45
247,24	200,70
247,46	194,56
247,68	228,86
247,90	194,56
248,11	171,01
248,33	148,99
248,55	225,28
248,77	144,38
248,99	244,22
249,21	123,90
249,42	189,95
249,64	275,45
249,86	197,12
250,08	164,35
250,30	201,21
250,51	181,25
250,73	94,21
250,95	150,01
251,17	250,36
251,39	180,22
251,60	260,60
251,82	256,51
252,04	220,16
252,26	152,57
252,48	138,24
252,69	276,48
252,91	230,91
253,13	184,32
253,35	265,21
253,57	200,70
253,78	175,10
254,00	212,48
254,22	177,15
254,44	182,27
254,65	173,57
254,87	171,01
255,09	215,04
255,31	208,89
255,53	187,39
255,74	200,19
255,96	207,36
256,18	245,24
256,40	222,20
256,61	156,67
256,83	309,76
257,05	167,42
257,27	267,77
257,48	130,05
257,70	195,07
257,92	221,69
258,14	187,90
258,36	147,97
258,57	276,48
258,79	183,81
259,01	197,63
259,23	196,61
259,44	144,89
259,66	199,16
259,88	235,00
260,10	208,89
260,31	176,13
260,53	268,28
260,75	145,41
260,97	208,89
261,18	167,42
261,40	241,66
261,62	169,47
261,84	222,72
262,05	211,45
262,27	277,50
262,49	178,69
262,71	251,39
262,92	223,74
263,14	148,48
263,36	195,58
263,57	249,34
263,79	243,71
264,01	213,50
264,23	192,00
264,44	218,62
264,66	185,85
264,88	212,48
265,10	198,65
265,31	239,10
265,53	145,92
265,75	261,12
265,96	180,73
266,18	259,07
266,40	266,75
266,62	267,77
266,83	282,62
267,05	123,39
267,27	243,71
267,48	259,58
267,70	118,27
267,92	152,06
268,14	211,96
268,35	217,60
268,57	257,02
268,79	258,04
269,00	232,96
269,22	242,68
269,44	177,15
269,65	216,06
269,87	159,23
270,09	210,94
270,31	193,02
270,52	283,13
270,74	250,88
270,96	151,04
271,17	264,70
271,39	209,92
271,61	242,68
271,82	248,32
272,04	253,44
272,26	239,61
272,47	262,14
272,69	187,39
272,91	150,53
273,12	223,23
273,34	223,74
273,56	141,31
273,77	161,28
273,99	205,31
274,21	237,05
274,42	135,68
274,64	231,93
274,86	112,13
275,08	211,96
275,29	142,85
275,51	273,92
275,72	189,95
275,94	312,83
276,16	167,42
276,37	179,71
276,59	117,76
276,81	148,48
277,02	212,99
277,24	204,28
277,46	237,56
277,67	162,81
277,89	232,44
278,11	242,17
278,32	225,79
278,54	120,83
278,76	330,75
278,97	296,44
279,19	225,28
279,41	207,36
279,62	239,10
279,84	270,33
280,05	137,21
280,27	202,24
280,49	210,94
280,70	196,61
280,92	199,16
281,14	256,51
281,35	92,67
281,57	226,30
281,79	176,13
282,00	226,30
282,22	317,95
282,43	263,68
282,65	203,77
282,87	141,82
283,08	168,45
283,30	286,72
283,52	276,99
283,73	181,25
283,95	257,02
284,16	193,53
284,38	224,25
284,60	290,30
284,81	247,80
285,03	251,39
285,24	203,77
285,46	238,59
285,68	184,32
285,89	224,25
286,11	156,67
286,32	285,18
286,54	209,92
286,76	218,62
286,97	270,84
287,19	195,07
287,40	244,73
287,62	243,20
287,84	215,04
288,05	226,30
288,27	218,11
288,48	184,83
288,70	219,64
288,92	224,76
289,13	196,09
289,35	193,53
289,56	221,18
289,78	223,23
289,99	280,06
290,21	251,39
290,43	224,25
290,64	162,81
290,86	226,30
291,07	220,67
291,29	270,33
291,51	229,37
291,72	267,77
291,94	275,45
292,15	258,56
292,37	278,52
292,58	199,16
292,80	259,58
293,01	188,93
293,23	230,91
293,45	264,19
293,66	210,43
293,88	329,21
294,09	131,07
294,31	205,82
294,52	227,32
294,74	191,49
294,96	246,78
295,17	188,41
295,39	256,00
295,60	243,20
295,82	240,64
296,03	181,25
296,25	185,85
296,46	235,00
296,68	174,08
296,89	195,58
297,11	154,11
297,32	305,15
297,54	301,05
297,76	222,72
297,97	210,94
298,19	253,95
298,40	274,43
298,62	194,56
298,83	240,12
299,05	260,60
299,26	194,56
299,48	197,12
299,69	252,92
299,91	132,61
300,12	288,25
300,34	241,66
300,55	244,22
300,77	303,10
300,98	122,88
301,20	169,98
301,41	129,53
301,63	206,33
301,84	197,12
302,06	268,80
302,28	174,59
302,49	198,65
302,71	304,64
302,92	111,61
303,14	205,82
303,35	288,25
303,57	189,44
303,78	260,60
304,00	244,22
304,21	199,16
304,43	252,92
304,64	216,06
304,86	181,76
305,07	249,34
305,29	223,74
305,50	161,79
305,71	231,42
305,93	216,57
306,14	318,97
306,36	243,20
306,57	250,88
306,79	266,75
307,00	174,59
307,22	263,16
307,43	154,62
307,65	286,20
307,86	270,84
308,08	239,10
308,29	273,92
308,51	198,14
308,72	242,68
308,94	235,00
309,15	295,93
309,37	216,06
309,58	168,96
309,80	195,07
310,01	251,39
310,22	230,91
310,44	221,18
310,65	257,02
310,87	237,05
311,08	322,04
311,30	164,35
311,51	302,08
311,73	263,68
311,94	182,27
312,16	195,58
312,37	262,65
312,58	309,24
312,80	195,07
313,01	244,22
313,23	219,64
313,44	326,65
313,66	165,89
313,87	282,62
314,09	149,50
314,30	236,54
314,51	222,72
314,73	187,90
314,94	250,36
315,16	243,71
315,37	275,45
315,59	201,72
315,80	213,50
316,01	253,44
316,23	239,61
316,44	261,12
316,66	250,36
316,87	306,68
317,09	273,40
317,30	241,66
317,51	243,20
317,73	246,78
317,94	209,40
318,16	307,20
318,37	169,98
318,58	102,40
318,80	269,31
319,01	216,06
319,23	303,10
319,44	167,42
319,66	218,62
319,87	259,58
320,08	279,55
320,30	208,38
320,51	201,72
320,73	198,14
320,94	304,12
321,15	202,24
321,37	278,52
321,58	234,49
321,80	286,20
322,01	203,77
322,22	175,10
322,44	218,62
322,65	268,28
322,86	265,72
323,08	269,82
323,29	248,83
323,51	181,25
323,72	241,15
323,93	270,84
324,15	264,19
324,36	200,70
324,58	305,15
324,79	250,88
325,00	259,58
325,22	214,52
325,43	212,48
325,64	224,25
325,86	211,45
326,07	221,69
326,28	254,46
326,50	225,28
326,71	199,68
326,93	185,85
327,14	240,12
327,35	178,17
327,57	301,05
327,78	265,72
327,99	335,87
328,21	207,36
328,42	294,91
328,63	282,11
328,85	237,56
329,06	245,76
329,27	208,38
329,49	252,41
329,70	207,36
329,91	322,04
330,13	187,90
330,34	277,50
330,56	116,22
330,77	219,13
330,98	303,61
331,20	236,03
331,41	315,90
331,62	251,39
331,84	274,94
332,05	205,82
332,26	313,34
332,48	310,27
332,69	262,14
332,90	259,07
333,11	237,05
333,33	230,40
333,54	303,61
333,75	231,93
333,97	136,70
334,18	223,74
334,39	318,46
334,61	283,64
334,82	323,58
335,03	212,99
335,25	220,16
335,46	266,24
335,67	291,32
335,89	248,32
336,10	250,88
336,31	236,03
336,53	253,95
336,74	284,67
336,95	305,66
337,16	237,05
337,38	245,24
337,59	406,01
337,80	202,24
338,02	261,12
338,23	325,63
338,44	237,56
338,65	264,70
338,87	246,78
339,08	254,97
339,29	311,29
339,51	265,21
339,72	222,20
339,93	339,45
340,14	309,24
340,36	298,49
340,57	254,46
340,78	244,22
341,00	196,09
341,21	324,60
341,42	427,51
341,63	223,23
341,85	235,52
342,06	248,32
342,27	302,08
342,49	320,00
342,70	326,65
342,91	314,88
343,12	315,90
343,34	349,18
343,55	288,76
343,76	322,04
343,97	330,23
344,19	356,35
344,40	303,61
344,61	333,31
344,82	287,23
345,04	274,94
345,25	354,30
345,46	262,14
345,67	318,97
345,89	295,93
346,10	319,48
346,31	284,16
346,52	252,92
346,74	263,68
346,95	335,87
347,16	264,19
347,37	260,09
347,59	302,08
347,80	295,93
348,01	358,39
348,22	362,49
348,43	282,62
348,65	304,12
348,86	346,62
349,07	420,86
349,28	287,74
349,50	347,64
349,71	374,78
349,92	315,90
350,13	359,93
350,34	310,27
350,56	289,79
350,77	419,83
350,98	362,49
351,19	351,74
351,41	462,84
351,62	445,43
351,83	286,20
352,04	426,49
352,25	392,19
352,47	423,93
352,68	541,18
352,89	267,77
353,10	424,95
353,31	437,24
353,53	442,36
353,74	381,43
353,95	421,37
354,16	471,54
354,37	439,80
354,59	436,73
354,80	526,84
355,01	381,95
355,22	427,51
355,43	412,67
355,65	368,12
355,86	558,58
356,07	463,35
356,28	461,82
356,49	392,19
356,70	505,34
356,92	490,49
357,13	446,46
357,34	515,06
357,55	581,11
357,76	557,05
357,98	423,93
358,19	559,61
358,40	494,07
358,61	504,82
358,82	509,94
359,03	542,20
359,25	603,13
359,46	641,53
359,67	599,03
359,88	538,62
360,09	571,38
360,30	521,21
360,51	561,14
360,73	653,81
360,94	632,82
361,15	588,28
361,36	529,91
361,57	654,33
361,78	625,14
362,00	612,34
362,21	644,09
362,42	740,85
362,63	612,34
362,84	658,42
363,05	620,02
363,26	624,63
363,48	668,66
363,69	724,98
363,90	684,02
364,11	657,40
364,32	673,78
364,53	713,21
364,74	738,80
364,95	734,71
365,17	724,98
365,38	820,72
365,59	852,47
365,80	854,00
366,01	757,75
366,22	808,44
366,43	714,74
366,64	851,44
366,86	848,37
367,07	798,20
367,28	927,73
367,49	863,73
367,70	965,11
367,91	838,64
368,12	837,62
368,33	835,57
368,54	1040,37
368,76	925,68
368,97	915,44
369,18	941,55
369,39	919,03
369,60	914,93
369,81	986,10
370,02	1034,74
370,23	1051,12
370,44	943,09
370,65	961,52
370,87	1020,40
371,08	1077,74
371,29	1051,12
371,50	1085,42
371,71	1141,74
371,92	1150,45
372,13	1084,91
372,34	1117,17
372,55	1040,88
372,76	1175,53
372,97	1157,10
373,18	1213,93
373,40	1159,66
373,61	1173,49
373,82	1157,10
374,03	1235,95
374,24	1260,52
374,45	1144,81
374,66	1306,60
374,87	1304,04
375,08	1257,96
375,29	1274,35
375,50	1287,15
375,71	1289,71
375,92	1372,14
376,13	1223,15
376,34	1347,56
376,56	1331,18
376,77	1378,79
376,98	1336,30
377,19	1356,78
377,40	1400,81
377,61	1456,62
377,82	1420,27
378,03	1462,76
378,24	1491,43
378,45	1459,69
378,66	1450,99
378,87	1395,18
379,08	1506,28
379,29	1543,66
379,50	1584,10
379,71	1425,39
379,92	1506,79
380,13	1519,59
380,34	1584,10
380,55	1609,70
380,76	1602,54
380,97	1690,60
381,18	1636,84
381,39	1660,39
381,60	1709,03
381,81	1602,54
382,02	1654,76
382,24	1650,15
382,45	1576,42
382,66	1738,21
382,87	1720,29
383,08	1785,32
383,29	1743,85
383,50	1822,69
383,71	1764,33
383,92	1769,96
384,13	1703,91
384,34	1888,74
384,55	1768,93
384,76	1829,35
384,97	1857,00
385,18	1855,97
385,39	1852,90
385,60	1859,56
385,81	1953,25
386,02	1964,51
386,23	1992,67
386,44	1934,82
386,65	1967,07
386,86	2014,69
387,07	2060,26
387,28	2086,37
387,49	2056,67
387,70	2044,38
387,91	2092,00
388,12	2128,86
388,32	2059,23
388,53	2073,06
388,74	2077,66
388,95	2113,50
389,16	2151,90
389,37	2169,31
389,58	2220,51
389,79	2304,99
390,00	2257,37
390,21	2211,29
390,42	2282,97
390,63	2306,01
390,84	2267,61
391,05	2362,84
391,26	2419,68
391,47	2300,38
391,68	2339,80
391,89	2374,62
392,10	2442,71
392,31	2418,65
392,52	2421,72
392,73	2423,26
392,94	2509,27
393,15	2457,05
393,36	2425,82
393,57	2467,29
393,78	2521,05
393,98	2629,59
394,19	2555,86
394,40	2547,16
394,61	2475,48
394,82	2653,66
395,03	2619,86
395,24	2626,52
395,45	2551,26
395,66	2633,69
395,87	2561,50
396,08	2636,25
396,29	2700,25
396,50	2695,13
396,71	2708,44
396,92	2613,72
397,12	2703,83
397,33	2714,07
397,54	2712,53
397,75	2797,01
397,96	2712,02
398,17	2797,01
398,38	2838,48
398,59	2944,98
398,80	2732,50
399,01	2938,84
399,22	2970,58
399,43	2897,36
399,63	2943,44
399,84	3040,72
400,05	2958,29
400,26	2897,88
400,47	3021,27
400,68	2978,77
400,89	3036,11
401,10	3007,44
401,31	3030,99
401,52	2963,92
401,72	3122,13
401,93	2977,75
402,14	3085,78
402,35	3188,18
402,56	3140,05
402,77	3093,97
402,98	3192,78
403,19	3202,51
403,40	3246,03
403,60	3179,98
403,81	3325,90
404,02	3199,95
404,23	3310,54
404,44	3294,16
404,65	3317,71
404,86	3318,22
405,07	3375,56
405,27	3319,76
405,48	3370,96
405,69	3320,78
405,90	3458,00
406,11	3445,71
406,32	3411,92
406,53	3527,63
406,74	3524,04
406,94	3322,83
407,15	3524,55
407,36	3471,31
407,57	3562,44
407,78	3548,11
407,99	3627,46
408,20	3674,57
408,40	3684,81
408,61	3663,30
408,82	3677,13
409,03	3741,64
409,24	3697,10
409,45	3677,13
409,65	3786,69
409,86	3858,37
410,07	3758,02
410,28	3804,10
410,49	3890,12
410,70	3910,08
410,90	3936,20
411,11	3905,99
411,32	3870,66
411,53	3906,50
411,74	3962,82
411,95	4101,57
412,15	4051,91
412,36	3924,93
412,57	4010,43
412,78	4062,66
412,99	4051,91
413,20	4067,27
413,40	3979,72
413,61	4075,97
413,82	4255,17
414,03	4120,00
414,24	4184,51
414,44	4179,90
414,65	4222,40
414,86	4192,70
415,07	4270,01
415,28	4291,01
415,48	4260,80
415,69	4281,79
415,90	4372,93
416,11	4379,58
416,32	4363,71
416,53	4267,97
416,73	4515,26
416,94	4345,79
417,15	4479,93
417,36	4558,78
417,56	4378,56
417,77	4390,84
417,98	4448,70
418,19	4618,68
418,40	4521,92
418,60	4595,13
418,81	4526,52
419,02	4512,70
419,23	4652,47
419,44	4455,87
419,64	4543,42
419,85	4588,99
420,06	4549,05
420,27	4714,42
420,47	4630,46
420,68	4683,70
420,89	4685,24
421,10	4719,03
421,30	4822,97
421,51	4828,60
421,72	4771,26
421,93	4702,14
422,14	4728,25
422,34	4865,46
422,55	4780,47
422,76	4822,97
422,97	4917,68
423,17	4943,80
423,38	4950,96
423,59	4766,14
423,80	4910,52
424,00	4857,27
424,21	4906,42
424,42	4889,53
424,63	4921,27
424,83	4877,24
425,04	5155,25
425,25	4863,41
425,46	5217,71
425,66	5029,81
425,87	5063,09
426,08	5036,98
426,28	5220,78
426,49	5127,60
426,70	5260,21
426,91	5129,14
427,11	5224,37
427,32	5323,18
427,53	5157,81
427,74	5285,81
427,94	5238,70
428,15	5410,22
428,36	5372,85
428,56	5312,43
428,77	5505,96
428,98	5422,00
429,19	5430,70
429,39	5361,58
429,60	5403,05
429,81	5572,01
430,01	5439,40
430,22	5572,01
430,43	5539,76
430,64	5439,41
430,84	5415,85
431,05	5636,52
431,26	5743,53
431,46	5686,19
431,67	5644,71
431,88	5855,65
432,08	5785,00
432,29	5838,76
432,50	5752,23
432,70	5837,22
432,91	5857,70
433,12	5890,98
433,33	5925,80
433,53	5838,76
433,74	6006,18
433,95	6038,95
434,15	5789,61
434,36	6011,81
434,57	5955,49
434,77	6070,18
434,98	6048,68
435,19	6043,04
435,39	6113,19
435,60	6207,91
435,81	6442,91
436,01	6146,98
436,22	6309,79
436,43	6299,04
436,63	6472,09
436,84	6399,90
437,05	6352,80
437,25	6281,63
437,46	6408,09
437,67	6556,06
437,87	6431,65
438,08	6417,82
438,29	6530,97
438,49	6588,32
438,70	6545,82
438,91	6531,48
439,11	6765,46
439,32	6848,41
439,52	6637,98
439,73	6622,11
439,94	6578,59
440,14	6712,22
440,35	6848,92
440,56	6668,19
440,76	6756,76
440,97	6855,58
441,18	6922,13
441,38	6784,92
441,59	6940,57
441,79	6921,62
442,00	7093,14
442,21	6887,32
442,41	7043,99
442,62	6783,38
442,83	6929,81
443,03	6987,16
443,24	7030,68
443,44	7123,35
443,65	7082,90
443,86	6974,87
444,06	7092,63
444,27	7178,64
444,48	7229,33
444,68	7103,89
444,89	7238,55
445,09	7304,08
445,30	7164,82
445,51	7370,64
445,71	7305,62
445,92	7423,89
446,12	7373,71
446,33	7447,95
446,54	7470,99
446,74	7468,94
446,95	7273,87
447,15	7500,69
447,36	7539,08
447,57	7293,33
447,77	7458,19
447,98	7465,87
448,18	7326,10
448,39	7192,98
448,59	7503,25
448,80	7478,67
449,01	7456,14
449,21	7436,17
449,42	7542,16
449,62	7724,43
449,83	7634,83
450,04	7443,85
450,24	7657,36
450,45	7643,02
450,65	7667,59
450,86	7736,71
451,06	7788,43
451,27	7909,26
451,47	7571,34
451,68	7746,95
451,89	7801,74
452,09	7796,62
452,30	7680,39
452,50	7815,05
452,71	8058,76
452,91	7841,16
453,12	7926,66
453,33	7996,29
453,53	7708,55
453,74	8094,60
453,94	8036,23
454,15	7765,90
454,35	7778,19
454,56	8020,36
454,76	8258,95
454,97	7994,25
455,17	7981,45
455,38	8214,40
455,58	8136,07
455,79	8087,43
456,00	8252,29
456,20	8050,05
456,41	8238,98
456,61	7975,30
456,82	8016,26
457,02	8314,75
457,23	8440,19
457,43	8392,58
457,64	8183,68
457,84	8085,89
458,05	8426,37
458,25	8295,81
458,46	8407,42
458,66	8378,75
458,87	8590,20
459,07	8686,46
459,28	8703,87
459,48	8502,14
459,69	8629,12
459,89	8557,95
460,10	8745,34
460,30	8956,79
460,51	8814,97
460,71	8924,02
460,92	9003,89
461,12	8995,70
461,33	9110,39
461,53	8939,90
461,74	8844,67
461,94	8960,89
462,15	9166,20
462,35	9189,24
462,56	9117,56
462,76	9287,03
462,97	9386,86
463,17	9268,59
463,38	9403,76
463,58	9362,80
463,79	9721,71
463,99	9484,66
464,20	9689,96
464,40	9607,02
464,61	9538,41
464,81	9799,53
465,02	9853,80
465,22	9741,16
465,43	9955,18
465,63	9927,02
465,83	9928,04
466,04	10280,29
466,24	10055,01
466,45	10492,26
466,65	10178,92
466,86	10303,84
467,06	10237,28
467,27	10385,25
467,47	10744,16
467,68	10602,33
467,88	10480,99
468,08	10780,51
468,29	10697,05
468,49	10914,65
468,70	10988,89
468,90	11074,39
469,11	11251,54
469,31	11128,15
469,52	11215,19
469,72	11879,75
469,92	11554,13
470,13	11647,31
470,33	11615,05
470,54	11573,07
470,74	11848,01
470,95	11796,30
471,15	12015,94
471,35	11963,21
471,56	12104,01
471,76	12333,89
471,97	12395,33
472,17	12446,53
472,38	12472,13
472,58	12873,53
472,78	12815,68
472,99	12871,48
473,19	12993,34
473,40	13322,55
473,60	13024,06
473,80	13248,31
474,01	13508,40
474,21	13577,52
474,42	13742,89
474,62	13936,43
474,83	13694,77
475,03	14129,96
475,23	14184,23
475,44	14489,38
475,64	14586,15
475,85	14589,73
476,05	14460,20
476,25	14898,46
476,46	15017,75
476,66	14928,16
476,86	14987,55
477,07	15254,30
477,27	15588,63
477,48	15670,54
477,68	15548,18
477,88	15975,18
478,09	15737,62
478,29	16038,16
478,50	16147,72
478,70	16118,54
478,90	16174,86
479,11	16352,01
479,31	16666,88
479,51	16834,30
479,72	16848,64
479,92	16856,83
480,12	16939,77
480,33	17251,58
480,53	17232,12
480,74	17400,05
480,94	17549,04
481,14	17879,28
481,35	17912,05
481,55	18036,46
481,75	18085,61
481,96	18155,24
482,16	18205,42
482,36	18524,39
482,57	18646,24
482,77	18510,57
482,97	18879,71
483,18	18905,82
483,38	19114,72
483,58	19241,69
483,79	19334,36
483,99	19526,36
484,19	19488,47
484,40	19668,18
484,60	19582,68
484,80	20006,61
485,01	20173,00
485,21	20157,64
485,41	20190,92
485,62	20470,98
485,82	20493,51
486,02	20613,32
486,23	20742,34
486,43	20930,75
486,63	21103,81
486,84	21284,54
487,04	21124,80
487,24	21442,74
487,45	21260,99
487,65	21749,43
487,85	21599,93
488,06	21874,35
488,26	21615,29
488,46	21981,36
488,67	22005,42
488,87	22132,40
489,07	22271,15
489,27	22401,71
489,48	22606,50
489,68	22462,63
489,88	22809,25
490,09	22801,06
490,29	22786,21
490,49	22978,72
490,70	23199,90
490,90	23266,97
491,10	23028,90
491,30	23537,82
491,51	23224,99
491,71	23769,75
491,91	23548,57
492,12	23781,01
492,32	23589,02
492,52	23921,81
492,72	23878,29
492,93	24022,16
493,13	24192,65
493,33	24319,12
493,53	24336,52
493,74	24398,48
493,94	24839,30
494,14	24400,52
494,34	24755,33
494,55	24581,26
494,75	24796,29
494,95	24897,16
495,16	24946,31
495,36	25033,86
495,56	24996,99
495,76	25071,75
495,97	25164,42
496,17	25319,04
496,37	25128,58
496,57	25595,51
496,78	25512,57
496,98	25480,83
497,18	25527,42
497,38	25548,92
497,59	25743,99
497,79	25400,96
497,99	25846,90
498,19	25730,68
498,39	26003,57
498,60	26059,89
498,80	26102,39
499,00	26011,25
499,20	26121,84
499,41	26252,40
499,61	26074,23
499,81	26239,09
500,01	26204,27
500,22	26247,79
500,42	26281,58
500,62	26250,35
500,82	26466,41
501,02	26346,61
501,23	26477,68
501,43	26455,66
501,63	26606,70
501,83	26518,64
502,03	26516,08
502,24	26746,98
502,44	26537,58
502,64	26738,79
502,84	26727,02
503,05	26780,78
503,25	26908,77
503,45	26801,77
503,65	26934,37
503,85	27062,88
504,06	27023,46
504,26	26997,86
504,46	27416,67
504,66	27267,68
504,86	27596,38
505,06	27349,60
505,27	27240,54
505,47	27535,45
505,67	27697,24
505,87	27621,98
506,07	27607,13
506,28	27955,80
506,48	27717,21
506,68	28123,22
506,88	27832,41
507,08	27915,86
507,28	28102,23
507,49	28331,09
507,69	28385,87
507,89	28060,76
508,09	28533,84
508,29	28553,80
508,49	28653,13
508,70	28624,97
508,90	28849,22
509,10	28726,86
509,30	28582,48
509,50	28821,58
509,70	28932,68
509,91	28993,09
510,11	28961,35
510,31	29017,67
510,51	28932,17
510,71	29077,06
510,91	29151,30
511,11	29232,19
511,32	29339,20
511,52	29209,15
511,72	29497,92
511,92	29503,55
512,12	29517,89
512,32	29388,35
512,52	29670,46
512,73	29734,97
512,93	29894,71
513,13	29749,31
513,33	29991,99
513,53	30172,21
513,73	30418,99
513,93	30227,51
514,13	30080,56
514,34	30460,98
514,54	30565,42
514,74	30790,19
514,94	30860,84
515,14	30805,55
515,34	30861,87
515,54	31009,32
515,74	31232,04
515,94	31076,39
516,15	31249,96
516,35	31337,51
516,55	31389,73
516,75	31705,12
516,95	31674,40
517,15	31738,40
517,35	31484,96
517,55	31627,81
517,75	32028,70
517,95	31664,16
518,16	31818,78
518,36	31822,87
518,56	32075,29
518,76	32412,69
518,96	32551,44
519,16	32397,33
519,36	32436,24
519,56	32462,86
519,76	32710,16
519,96	32530,96
520,16	32887,82
520,37	32751,63
520,57	33054,22
520,77	33123,85
520,97	33082,89
521,17	33052,68
521,37	33186,82
521,57	33469,95
521,77	33480,71
521,97	33467,91
522,17	33475,59
522,37	33970,68
522,57	33555,46
522,77	33670,14
522,97	33824,25
523,17	33914,87
523,37	33991,16
523,58	34041,85
523,78	34110,97
523,98	34483,19
524,18	34173,43
524,38	34357,24
524,58	34617,84
524,78	34315,76
524,98	34748,40
525,18	34653,68
525,38	34749,93
525,58	34630,13
525,78	34961,39
525,98	35029,48
526,18	34984,43
526,38	34836,46
526,58	35291,11
526,78	34937,83
526,98	35086,82
527,18	35049,96
527,38	35172,84
527,58	34914,80
527,78	35198,95
527,98	35490,79
528,18	35257,83
528,38	35242,47
528,58	35273,70
528,78	35534,31
528,98	35478,50
529,18	35493,35
529,38	35611,62
529,58	35514,85
529,78	35702,24
529,98	35541,99
530,18	35763,17
530,38	35798,49
530,58	35751,39
530,78	36054,49
530,98	35853,79
531,18	36112,34
531,38	36173,78
531,58	36409,81
531,78	36155,86
531,98	36134,36
532,18	36292,57
532,38	36413,91
532,58	36477,91
532,78	36301,78
532,98	36821,97
533,18	36613,59
533,38	36500,95
533,58	36966,86
533,78	36851,15
533,98	36879,31
534,18	36756,43
534,38	36900,30
534,58	37018,06
534,78	37003,72
534,98	37298,63
535,18	37329,35
535,38	37489,60
535,58	37092,30
535,78	37215,18
535,98	37229,51
536,18	37625,28
536,38	37551,56
536,58	37795,78
536,78	37377,99
536,98	37401,54
537,18	37700,54
537,38	37647,81
537,58	37476,80
537,78	37803,46
537,98	37816,77
538,17	37638,59
538,37	37445,06
538,57	37744,06
538,77	37571,01
538,97	37845,95
539,17	37671,36
539,37	37437,89
539,57	37906,88
539,77	38034,88
539,97	37991,87
540,17	37747,65
540,37	38000,06
540,57	38141,88
540,77	38160,83
540,97	38135,23
541,16	38133,18
541,36	38348,73
541,56	38207,42
541,76	38115,77
541,96	38512,56
542,16	38103,48
542,36	38367,16
542,56	38321,08
542,76	38722,48
542,96	38411,70
543,16	38304,70
543,36	38448,57
543,55	38566,84
543,75	38618,55
543,95	38363,06
544,15	38587,32
544,35	38600,63
544,55	38801,84
544,75	38625,20
544,95	38958,00
545,15	38670,77
545,35	38695,86
545,54	38879,66
545,74	38988,72
545,94	38630,32
546,14	39169,45
546,34	38958,00
546,54	38977,45
546,74	38936,49
546,94	39034,28
547,14	39027,12
547,33	39000,49
547,53	38676,91
547,73	39103,92
547,93	39135,66
548,13	38868,91
548,33	38889,90
548,53	39251,37
548,72	38737,33
548,92	39218,60
549,12	39229,87
549,32	39172,01
549,52	39153,07
549,72	39258,02
549,92	39161,26
550,12	38952,37
550,31	39444,90
550,51	38853,55
550,71	39435,69
550,91	39316,39
551,11	39288,74
551,31	39469,48
551,50	39129,51
551,70	39302,06
551,90	39711,65
552,10	39498,15
552,30	39448,49
552,50	39590,31
552,70	39506,34
552,89	39538,08
553,09	39983,01
553,29	39870,37
553,49	39701,41
553,69	40047,00
553,88	39861,66
554,08	39806,88
554,28	39715,23
554,48	39910,30
554,68	39785,89
554,88	39604,13
555,07	40135,58
555,27	39996,83
555,47	39869,86
555,67	40089,50
555,87	40143,77
556,06	39876,00
556,26	40332,18
556,46	40320,41
556,66	40300,95
556,86	40047,52
557,06	40261,02
557,25	40218,52
557,45	39723,94
557,65	40135,58
557,85	40582,04
558,05	40314,26
558,24	40618,39
558,44	40627,09
558,64	40690,07
558,84	40626,58
559,03	40541,59
559,23	40679,83
559,43	40917,90
559,63	40872,34
559,83	40648,60
560,02	40681,36
560,22	40884,62
560,42	41247,63
560,62	41101,71
560,82	40514,45
561,01	40638,87
561,21	40700,82
561,41	40850,83
561,61	40829,84
561,80	40971,66
562,00	40947,60
562,20	41123,72
562,40	41307,53
562,59	41208,20
562,79	41048,46
562,99	41272,20
563,19	41257,87
563,38	41147,28
563,58	41437,58
563,78	41320,84
563,98	41368,46
564,17	41197,96
564,37	41317,26
564,57	41545,09
564,77	41234,31
564,96	41426,82
565,16	41162,12
565,36	41766,79
565,56	41576,33
565,75	41469,83
565,95	41693,06
566,15	41635,72
566,35	41783,68
566,54	41796,48
566,74	41940,86
566,94	41778,56
567,14	41950,59
567,33	42129,79
567,53	42006,91
567,73	42059,65
567,92	42201,47
568,12	42131,33
568,32	42138,49
568,52	42132,35
568,71	42017,15
568,91	42148,73
569,11	42577,27
569,30	41981,31
569,50	42408,31
569,70	42378,62
569,90	42313,08
570,09	42552,69
570,29	42582,90
570,49	42612,60
570,68	42324,86
570,88	42266,49
571,08	42533,75
571,27	42422,65
571,47	42625,91
571,67	42717,04
571,87	42703,22
572,06	42332,03
572,26	42950,51
572,46	42758,52
572,65	42839,41
572,85	42730,36
573,05	43152,75
573,24	42885,49
573,44	42779,00
573,64	42994,03
573,83	43165,55
574,03	42884,98
574,23	43245,42
574,42	43309,42
574,62	43318,12
574,82	43292,01
575,01	43017,58
575,21	43284,33
575,41	43558,76
575,60	43244,91
575,80	43343,72
576,00	43570,02
576,19	43566,44
576,39	43309,42
576,59	43938,15
576,78	43585,38
576,98	43513,70
577,18	43903,84
577,37	43816,80
577,57	43878,75
577,77	43701,61
577,96	43503,46
578,16	43930,98
578,35	43951,46
578,55	43675,49
578,75	44020,06
578,94	43326,83
579,14	44116,83
579,34	44028,26
579,53	43927,91
579,73	44182,37
579,93	43877,73
580,12	44082,53
580,32	43809,64
580,51	43953,51
580,71	43811,68
580,91	43763,56
581,10	44221,28
581,30	44375,90
581,50	44100,96
581,69	44029,28
581,89	44064,10
582,08	44170,59
582,28	43723,62
582,48	44366,68
582,67	43876,71
582,87	44245,85
583,06	44494,17
583,26	44589,91
583,46	44379,48
583,65	44218,21
583,85	44567,38
584,04	44437,85
584,24	44131,68
584,44	44437,34
584,63	44583,26
584,83	44725,59
585,02	44524,38
585,22	44622,17
585,42	44626,78
585,61	44467,55
585,81	44626,78
586,00	44741,46
586,20	44887,38
586,39	44442,97
586,59	44331,87
586,79	45080,91
586,98	44372,31
587,18	44697,43
587,37	44621,14
587,57	44289,37
587,76	44502,87
587,96	44564,31
588,16	44477,27
588,35	44439,39
588,55	44389,21
588,74	44812,63
588,94	44481,37
589,13	44651,86
589,33	44641,11
589,52	44326,75
589,72	44589,40
589,92	44748,12
590,11	44770,13
590,31	44510,55
590,50	44774,74
590,70	44621,66
590,89	44454,75
591,09	44539,74
591,28	44503,90
591,48	44641,11
591,67	44607,32
591,87	44579,67
592,06	44556,63
592,26	44548,95
592,46	44473,69
592,65	44469,59
592,85	44463,96
593,04	44862,80
593,24	44459,35
593,43	44412,76
593,63	44639,06
593,82	44740,44
594,02	44582,23
594,21	44876,63
594,41	44628,82
594,60	44403,03
594,80	44599,64
594,99	44266,84
595,19	44553,56
595,38	44976,98
595,58	44596,06
595,77	44508,50
595,97	44513,62
596,16	44706,65
596,36	44553,05
596,55	44497,24
596,75	44541,78
596,94	44199,77
597,14	44542,81
597,33	44473,69
597,53	44527,45
597,72	44566,87
597,92	44515,67
598,11	44537,69
598,31	44664,66
598,50	44218,72
598,70	44200,29
598,89	44269,40
599,09	43978,59
599,28	44272,99
599,48	44035,94
599,67	44426,07
599,87	44104,03
600,06	44262,75
600,26	43901,79
600,45	44066,14
600,64	44216,16
600,84	44055,39
601,03	44394,84
601,23	44274,52
601,42	44367,71
601,62	43950,43
601,81	44182,37
602,01	44231,52
602,20	44141,92
602,40	43858,27
602,59	43788,64
602,78	44228,45
602,98	43797,35
603,17	44136,29
603,37	44153,18
603,56	44116,32
603,76	44243,80
603,95	44112,73
604,15	43656,04
604,34	43963,75
604,53	43848,55
604,73	44036,96
604,92	43855,71
605,12	44137,82
605,31	44009,82
605,51	43834,72
605,70	43938,66
605,89	43786,60
606,09	43659,62
606,28	43792,23
606,48	44131,17
606,67	43803,49
606,87	43810,66
607,06	43576,17
607,25	43730,28
607,45	44064,10
607,64	43607,91
607,84	43917,15
608,03	43921,25
608,22	43929,95
608,42	43985,76
608,61	43610,47
608,81	43545,96
609,00	43549,54
609,19	43471,21
609,39	43612,01
609,58	43460,97
609,78	43855,20
609,97	43388,27
610,16	43455,34
610,36	43586,41
610,55	43429,74
610,75	43510,12
610,94	43423,08
611,13	43440,49
611,33	43597,16
611,52	43709,80
611,71	43110,25
611,91	43730,79
612,10	43964,77
612,30	43516,78
612,49	43557,22
612,68	43824,48
612,88	43458,41
613,07	43111,28
613,26	43673,96
613,46	43727,72
613,65	43525,99
613,84	44216,16
614,04	43748,71
614,23	43857,25
614,43	44440,41
614,62	43924,32
614,81	43891,04
615,01	44384,60
615,20	44279,13
615,39	44080,99
615,59	44158,81
615,78	43946,34
615,97	43988,83
616,17	44148,06
616,36	44259,16
616,55	44657,49
616,75	44786,00
616,94	44546,39
617,13	44689,24
617,33	44870,48
617,52	44888,40
617,71	44616,54
617,91	45040,98
618,10	44976,98
618,29	44857,17
618,49	44814,16
618,68	44989,78
618,87	44811,09
619,07	45275,47
619,26	45203,79
619,45	45520,71
619,65	45172,05
619,84	45565,26
620,03	45503,31
620,22	45686,60
620,42	45355,85
620,61	45562,18
620,80	45663,56
621,00	45795,65
621,19	46035,78
621,38	46308,16
621,58	45921,60
621,77	46118,72
621,96	46519,10
622,15	46410,04
622,35	46319,93
622,54	46512,95
622,73	46875,96
622,93	46637,88
623,12	46698,30
623,31	46723,90
623,50	46900,02
623,70	47223,60
623,89	46927,16
624,08	46804,79
624,28	47166,77
624,47	47159,09
624,66	47065,39
624,85	47583,53
625,05	47296,81
625,24	47481,13
625,43	47814,95
625,62	47555,88
625,82	47691,56
626,01	47528,75
626,20	47876,39
626,39	47681,32
626,59	48031,01
626,78	48101,67
626,97	48280,35
627,17	48210,72
627,36	48346,91
627,55	48058,66
627,74	48301,85
627,93	48474,40
628,13	48322,33
628,32	48361,25
628,51	48509,72
628,70	48461,08
628,90	48562,46
629,09	48552,22
629,28	48595,74
629,47	48788,76
629,67	48607,51
629,86	49021,20
630,05	49087,25
630,24	49117,97
630,44	49151,25
630,63	49269,52
630,82	49009,94
631,01	49046,80
631,20	48676,63
631,40	49007,38
631,59	49094,42
631,78	48871,70
631,97	48959,76
632,16	48976,15
632,36	49103,63
632,55	49027,86
632,74	49148,18
632,93	48786,20
633,13	48790,30
633,32	48769,82
633,51	48760,60
633,70	48858,39
633,89	48953,62
634,09	48757,02
634,28	48807,70
634,47	48987,41
634,66	48722,20
634,85	48765,72
635,04	49004,31
635,24	48743,19
635,43	48653,59
635,62	48840,47
635,81	48692,50
636,00	48677,66
636,20	49015,06
636,39	48952,60
636,58	48592,15
636,77	48530,20
636,96	48683,80
637,15	48786,71
637,35	48631,07
637,54	48425,25
637,73	48481,05
637,92	48574,75
638,11	48766,23
638,30	48527,64
638,50	48383,26
638,69	48854,29
638,88	48504,09
639,07	48296,74
639,26	48871,70
639,45	48272,67
639,64	48352,54
639,84	48332,57
640,03	47972,13
640,22	48443,16
640,41	48382,24
640,60	47826,21
640,79	48049,95
640,98	47989,03
641,18	48014,63
641,37	48348,96
641,56	47891,75
641,75	48140,58
641,94	47966,50
642,13	47952,16
642,32	47901,99
642,52	47933,73
642,71	47954,72
642,90	47783,72
643,09	47766,82
643,28	47918,88
643,47	47596,84
643,66	48005,92
643,85	47759,14
644,04	48088,35
644,24	47888,17
644,43	48135,46
644,62	47651,62
644,81	47703,34
645,00	47543,59
645,19	47895,85
645,38	47549,23
645,57	47883,05
645,76	47367,98
645,96	47540,01
646,15	47527,72
646,34	47426,35
646,53	46994,74
646,72	47540,01
646,91	47279,41
647,10	46844,21
647,29	47348,01
647,48	47444,78
647,67	47020,85
647,86	47015,73
648,05	47052,08
648,25	46630,71
648,44	46546,23
648,63	46719,80
648,82	46660,41
649,01	46658,87
649,20	46959,92
649,39	46627,13
649,58	46604,60
649,77	46590,27
649,96	46458,68
650,15	46770,49
650,34	46263,10
650,53	46484,28
650,72	46172,99
650,91	46145,34
651,11	46402,36
651,30	46115,14
651,49	46372,16
651,68	46285,63
651,87	45862,21
652,06	46192,45
652,25	46020,42
652,44	46218,56
652,63	45818,69
652,82	46106,94
653,01	45910,85
653,20	45531,47
653,39	45813,06
653,58	46176,06
653,77	45567,30
653,96	45669,19
654,15	45791,05
654,34	45740,87
654,53	45742,41
654,72	45623,62
654,91	45626,70
655,10	45631,30
655,29	45401,93
655,48	45560,65
655,67	45342,03
655,86	45635,91
656,05	45339,47
656,24	45208,40
656,43	45401,93
656,62	45211,98
656,81	45304,14
657,00	45348,17
657,19	44891,48
657,38	45001,04
657,57	45017,43
657,76	44841,81
657,95	44632,41
658,14	44860,24
658,33	44707,67
658,52	44299,10
658,71	44705,11
658,90	44446,55
659,09	44524,38
659,28	44303,20
659,47	44621,14
659,66	44483,93
659,85	44519,77
660,04	44561,24
660,23	44563,80
660,42	44051,30
660,61	44577,11
660,80	44120,93
660,99	44029,28
661,18	44381,02
661,37	44285,79
661,56	44352,35
661,75	44298,59
661,94	44511,06
662,13	44368,22
662,32	44352,86
662,51	44304,73
662,70	44535,64
662,89	44410,71
663,08	44274,52
663,27	44362,08
663,46	43903,84
663,65	44518,23
663,83	43808,61
664,02	44063,07
664,21	43991,90
664,40	43852,64
664,59	43920,23
664,78	44205,92
664,97	44075,36
665,16	43306,35
665,35	43632,49
665,54	43434,35
665,73	43741,03
665,92	43666,79
666,11	43391,34
666,30	43684,20
666,49	43340,65
666,67	43368,30
666,86	43188,59
667,05	43221,36
667,24	43317,61
667,43	43245,93
667,62	43321,19
667,81	42768,76
668,00	43645,80
668,19	42971,50
668,38	42968,43
668,57	43371,88
668,76	43181,42
668,94	42834,80
669,13	42810,74
669,32	43011,95
669,51	42666,87
669,70	42942,83
669,89	43122,54
670,08	42690,93
670,27	42723,70
670,46	42763,12
670,64	42537,33
670,83	42903,92
671,02	42653,05
671,21	42603,38
671,40	42371,45
671,59	42547,57
671,78	42304,38
671,97	42240,38
672,16	42089,85
672,34	42275,19
672,53	42398,07
672,72	42281,85
672,91	42184,06
673,10	42261,37
673,29	42382,20
673,48	42243,45
673,66	41897,86
673,85	42187,64
674,04	41908,10
674,23	41701,25
674,42	41912,19
674,61	42205,56
674,80	41806,21
674,98	41977,73
675,17	41856,90
675,36	41837,95
675,55	41800,58
675,74	42009,98
675,93	41573,77
676,12	41866,63
676,30	41988,48
676,49	41870,72
676,68	41787,78
676,87	41608,07
677,06	41875,84
677,25	41862,02
677,43	42106,24
677,62	41777,03
677,81	41712,00
678,00	41573,77
678,19	41987,97
678,37	41739,14
678,56	41595,78
678,75	42152,83
678,94	41617,80
679,13	41627,52
679,32	41626,50
679,50	41288,59
679,69	41634,69
679,88	41327,50
680,07	41522,57
680,26	41427,85
680,44	41387,91
680,63	41383,30
680,82	41341,83
681,01	41480,07
681,20	41550,73
681,38	41289,61
681,57	41206,16
681,76	41310,60
681,95	41211,79
682,14	41671,56
682,32	41463,18
682,51	41380,74
682,70	41304,46
682,89	41204,11
683,07	41231,75
683,26	40852,88
683,45	41099,66
683,64	41064,85
683,83	41078,16
684,01	41203,60
684,20	41237,90
684,39	41221,00
684,58	41166,73
684,76	41150,35
684,95	41123,21
685,14	41493,38
685,33	41100,17
685,52	41427,85
685,70	41174,92
685,89	41219,98
686,08	41260,43
686,27	41104,27
686,45	40989,58
686,64	40869,78
686,83	40913,30
687,02	40682,90
687,20	41109,90
687,39	40557,97
687,58	40889,74
687,76	40975,76
687,95	40822,16
688,14	40809,87
688,33	40353,69
688,51	41138,57
688,70	40384,92
688,89	40754,07
689,08	40221,08
689,26	40467,35
689,45	40325,53
689,64	40635,28
689,83	40523,67
690,01	40546,20
690,20	40426,90
690,39	40530,84
690,57	40234,91
690,76	40485,27
690,95	39998,37
691,14	40168,35
691,32	40312,22
691,51	40264,60
691,70	40209,31
691,88	40225,18
692,07	40380,82
692,26	40199,07
692,44	40181,15
692,63	40281,50
692,82	39884,19
693,01	40013,73
693,19	40062,88
693,38	40179,10
693,57	39988,13
693,75	40002,97
693,94	39738,79
694,13	39986,08
694,31	39730,08
694,50	40024,99
694,69	39649,70
694,87	39754,15
695,06	39564,20
695,25	39729,57
695,43	39916,96
695,62	39673,25
695,81	39635,36
695,99	39674,27
696,18	39898,02
696,37	39915,42
696,55	39907,23
696,74	39885,22
696,93	39766,43
697,11	39819,17
697,30	39387,56
697,49	39714,21
697,67	39601,57
697,86	39671,20
698,05	39741,86
698,23	39552,42
698,42	39800,74
698,61	39600,04
698,79	39546,28
698,98	39272,36
699,17	39444,39
699,35	39621,03
699,54	39573,41
699,72	39596,45
699,91	39556,00
700,10	39487,91
700,28	39423,40
700,47	39396,26
700,66	39254,95
700,84	39534,50
701,03	39505,32
701,21	39357,86
701,40	39423,40
701,59	39222,19
701,77	39438,25
701,96	39281,06
702,15	39058,35
702,33	39024,04
702,52	38703,03
702,70	39059,88
702,89	38837,17
703,08	39027,12
703,26	38579,64
703,45	38561,20
703,63	39085,48
703,82	38777,78
704,01	38607,28
704,19	38592,44
704,38	38644,66
704,56	38939,57
704,75	38733,23
704,94	38854,06
705,12	38500,28
705,31	38710,71
705,49	38664,63
705,68	38315,45
705,86	38741,94
706,05	38516,66
706,24	38768,05
706,42	38395,32
706,61	38284,22
706,79	38407,09
706,98	38190,52
707,17	38446,52
707,35	38491,57
707,54	38226,87
707,72	38229,94
707,91	37628,87
708,09	38162,36
708,28	38116,28
708,46	38057,40
708,65	38209,46
708,84	38348,21
709,02	37860,80
709,21	38199,23
709,39	38043,58
709,58	37999,55
709,76	38026,17
709,95	38086,07
710,13	38006,20
710,32	37832,64
710,50	38109,63
710,69	37882,81
710,88	37888,45
711,06	37491,14
711,25	37900,22
711,43	37779,39
711,62	38013,37
711,80	37615,04
711,99	37364,17
712,17	37713,86
712,36	37810,11
712,54	37480,39
712,73	37327,30
712,91	37277,13
713,10	37286,34
713,28	37458,37
713,47	37361,61
713,65	37488,07
713,84	37075,91
714,02	37216,20
714,21	37202,38
714,39	37281,74
714,58	36982,22
714,76	37051,85
714,95	37021,64
715,13	37251,53
715,32	37018,57
715,50	36696,53
715,69	37090,76
715,87	36573,14
716,06	36467,16
716,24	36477,91
716,43	36303,32
716,61	36568,02
716,80	36600,79
716,98	36126,17
717,17	36197,34
717,35	36183,00
717,54	36074,97
717,72	36007,90
717,91	35873,24
718,09	35895,26
718,28	36008,92
718,46	35874,78
718,65	35984,86
718,83	35964,89
719,01	35856,35
719,20	35347,94
719,38	36024,79
719,57	35640,80
719,75	35621,86
719,94	35707,36
720,12	35350,50
720,31	35646,43
720,49	35156,46
720,68	35245,54
720,86	35271,65
721,04	35590,62
721,23	35123,18
721,41	34850,28
721,60	35169,26
721,78	35041,26
721,97	35209,19
722,15	34834,92
722,34	34864,62
722,52	34955,24
722,70	34783,21
722,89	34813,93
723,07	34768,37
723,26	34840,04
723,44	34445,81
723,63	34444,79
723,81	34391,03
723,99	34657,78
724,18	34462,71
724,36	34707,44
724,55	34611,70
724,73	34200,05
724,91	34438,13
725,10	34292,21
725,28	34138,62
725,47	34401,78
725,65	34178,04
725,83	34411,51
726,02	34223,09
726,20	34212,85
726,39	33792,00
726,57	34002,43
726,75	33691,13
726,94	33830,91
727,12	33924,09
727,31	33566,21
727,49	33820,16
727,67	33637,37
727,86	33703,42
728,04	33536,51
728,23	33554,43
728,41	33390,08
728,59	33432,07
728,78	33638,91
728,96	33676,29
729,14	33200,65
729,33	33595,90
729,51	33261,06
729,69	33286,15
729,88	33164,29
730,06	33473,54
730,25	33481,22
730,43	33013,26
730,61	33071,62
730,80	33164,29
730,98	33169,93
731,16	33263,11
731,35	32769,55
731,53	33010,18
731,71	32764,43
731,90	32872,97
732,08	33161,22
732,26	32855,56
732,45	32877,58
732,63	32869,90
732,81	32372,24
733,00	32690,19
733,18	32668,69
733,36	32479,25
733,55	32501,26
733,73	32266,77
733,91	32457,23
734,10	32245,27
734,28	32241,17
734,46	32330,77
734,65	32236,05
734,83	32043,54
735,01	32271,38
735,20	32017,94
735,38	31779,36
735,56	31927,83
735,75	31960,60
735,93	31797,27
736,11	32151,57
736,30	32056,34
736,48	31756,83
736,66	31914,52
736,84	31898,65
737,03	31636,00
737,21	31961,62
737,39	31511,07
737,58	31635,49
737,76	31604,25
737,94	31466,53
738,12	31608,35
738,31	31221,80
738,49	31404,58
738,67	31371,81
738,86	31103,01
739,04	31098,41
739,22	31153,19
739,40	31006,76
739,59	30963,75
739,77	30962,22
739,95	31070,76
740,14	30891,56
740,32	31068,20
740,50	30705,71
740,68	30807,59
740,87	30560,81
741,05	30592,56
741,23	30522,93
741,41	30500,91
741,60	30223,41
741,78	30708,78
741,96	30129,72
742,14	30277,17
742,33	30322,23
742,51	30186,04
742,69	30057,01
742,87	29932,60
743,06	29855,29
743,24	29968,44
743,42	30114,87
743,60	29940,28
743,79	29686,84
743,97	29735,99
744,15	29486,65
744,33	29482,56
744,52	29326,91
744,70	29170,24
744,88	29302,34
745,06	29432,38
745,24	29416,00
745,43	29395,01
745,61	29238,34
745,79	28940,36
745,97	29166,15
746,16	29102,15
746,34	28934,21
746,52	29074,50
746,70	28762,19
746,88	28658,76
747,07	28856,39
747,25	28533,84
747,43	28561,48
747,61	28590,67
747,79	28560,97
747,98	28316,75
748,16	28363,34
748,34	28498,00
748,52	28182,61
748,70	28281,42
748,89	28289,62
749,07	27905,62
749,25	28304,46
749,43	28080,21
749,61	28196,43
749,79	28312,66
749,98	28097,62
750,16	28251,22
750,34	28146,77
750,52	28431,95
750,70	28294,22
750,88	28366,93
751,07	28582,48
751,25	28345,42
751,43	28317,78
751,61	28238,42
751,79	28578,89
751,97	28570,19
752,16	28346,45
752,34	28411,98
752,52	28433,49
752,70	28670,03
752,88	28648,01
753,06	28847,69
753,25	28602,96
753,43	28753,48
753,61	28811,85
753,79	28945,99
753,97	28579,92
754,15	28782,15
754,33	28714,06
754,52	28939,33
754,70	28995,14
754,88	28979,78
755,06	28989,00
755,24	29225,03
755,42	29070,40
755,60	29197,38
755,78	29227,07
755,97	29329,98
756,15	29159,49
756,33	29354,56
756,51	29230,15
756,69	29340,22
756,87	29358,14
757,05	29492,29
757,23	29278,27
757,41	29473,34
757,60	29413,44
757,78	29437,50
757,96	29635,64
758,14	29490,75
758,32	29543,49
758,50	29521,98
758,68	29500,99
758,86	29651,00
759,04	29558,84
759,22	29665,34
759,41	29661,24
759,59	29928,50
759,77	29923,90
759,95	29784,12
760,13	29646,40
760,31	29880,38
760,49	29851,19
760,67	29815,87
760,85	29874,74
761,03	30124,08
761,21	30108,72
761,39	30409,26
761,57	30364,21
761,76	30306,35
761,94	30522,41
762,12	30354,48
762,30	30492,72
762,48	30453,81
762,66	30297,65
762,84	30459,95
763,02	30212,15
763,20	30792,23
763,38	30444,59
763,56	30389,30
763,74	30376,50
763,92	30451,76
764,10	30341,17
764,28	30471,22
764,46	30424,62
764,64	30170,16
764,82	30241,33
765,00	30450,74
765,19	30221,87
765,37	30411,31
765,55	30273,07
765,73	30230,07
765,91	30135,35
766,09	30224,43
766,27	30211,12
766,45	29996,60
766,63	30190,64
766,81	30188,08
766,99	30102,07
767,17	30024,76
767,35	29986,36
767,53	30065,21
767,71	30271,03
767,89	29984,31
768,07	30025,27
768,25	30006,84
768,43	29944,89
768,61	30101,56
768,79	29953,08
768,97	29858,87
769,15	29769,79
769,33	29754,94
769,51	29443,65
769,69	29603,39
769,87	29627,96
770,05	29594,17
770,23	29364,80
770,41	29286,98
770,59	29491,26
770,77	29318,21
770,95	29256,77
771,13	29124,68
771,31	29115,46
771,49	29072,45
771,67	29045,32
771,85	29169,73
772,03	29023,81
772,21	29195,84
772,38	28780,62
772,56	28758,09
772,74	28788,30
772,92	28579,40
773,10	28426,83
773,28	28611,66
773,46	28107,86
773,64	28263,50
773,82	28260,94
774,00	28167,76
774,18	28125,27
774,36	28087,89
774,54	27926,61
774,72	27916,37
774,90	27940,95
775,08	27941,46
775,26	28042,84
775,44	27862,10
775,62	27717,72
775,80	27784,28
775,97	27477,60
776,15	27925,08
776,33	27623,00
776,51	27553,37
776,69	27421,28
776,87	27346,53
777,05	27215,97
777,23	27278,94
777,41	26923,62
777,59	26974,31
777,77	26765,42
777,95	27022,95
778,13	26708,58
778,30	26899,05
778,48	26557,03
778,66	26698,86
778,84	26388,08
779,02	26479,72
779,20	26298,48
779,38	26389,10
779,56	26080,88
779,74	26182,26
779,92	25998,45
780,09	26196,08
780,27	26178,67
780,45	26199,15
780,63	26157,17
780,81	26153,58
780,99	25841,27
781,17	25894,52
781,35	25690,23
781,52	25734,78
781,70	25605,24
781,88	25639,54
782,06	25652,34
782,24	25524,86
782,42	25345,15
782,60	25391,23
782,78	25342,59
782,95	25289,85
783,13	25156,74
783,31	25130,62
783,49	25149,57
783,67	25089,15
783,85	24999,04
784,03	24725,64
784,20	24644,74
784,38	24753,80
784,56	24392,33
784,74	24530,06
784,92	24404,11
785,10	24341,13
785,28	24416,91
785,45	24384,65
785,63	24037,01
785,81	24349,32
785,99	23961,75
786,17	24108,69
786,35	23838,36
786,52	23968,40
786,70	24115,34
786,88	24114,32
787,06	23888,53
787,24	23962,77
787,41	23695,51
787,59	23781,01
787,77	23598,74
787,95	23676,05
788,13	23415,96
788,31	23427,23
788,48	23449,24
788,66	23347,87
788,84	23333,02
789,02	23439,51
789,20	23278,24
789,37	23180,45
789,55	23372,44
789,73	23241,37
789,91	23029,92
790,09	23087,78
790,26	22892,71
790,44	22994,08
790,62	22738,09
790,80	22938,27
790,98	22782,12
791,15	22744,23
791,33	22709,41
791,51	22833,32
791,69	22459,05
791,86	22758,56
792,04	22558,38
792,22	22427,31
792,40	22345,39
792,58	22438,57
792,75	22224,04
792,93	22236,33
793,11	22151,34
793,29	21991,60
793,46	21960,88
793,64	21882,55
793,82	21912,75
794,00	21819,57
794,17	21791,92
794,35	21747,38
794,53	21621,94
794,71	21585,59
794,88	21521,08
795,06	21438,65
795,24	21344,95
795,42	21134,01
795,59	21184,19
795,77	21209,28
795,95	21148,35
796,13	21044,93
796,30	21115,07
796,48	21192,38
796,66	21057,21
796,83	21135,04
797,01	20797,63
797,19	20861,12
797,37	20906,18
797,54	20862,66
797,72	20668,61
797,90	20733,12
798,08	20621,00
798,25	20728,52
798,43	20706,50
798,61	20531,40
798,78	20429,51
798,96	20583,11
799,14	20358,86
799,31	20426,95
799,49	20201,16
799,67	20293,32
799,85	20336,33
800,02	20186,32
800,20	20016,85
800,38	19839,70
800,55	19813,07
800,73	19881,17
800,91	19857,62
801,08	19848,40
801,26	19783,89
801,44	19840,72
801,61	19888,85
801,79	19710,16
801,97	19784,40
802,15	19795,67
802,32	19644,63
802,50	19791,06
802,68	19548,89
802,85	19740,88
803,03	19553,49
803,21	19554,01
803,38	19466,97
803,56	19407,06
803,74	19295,45
803,91	19353,30
804,09	19344,60
804,26	19363,54
804,44	19331,29
804,62	19293,40
804,79	19295,45
804,97	19241,18
805,15	18911,97
805,32	19064,54
805,50	18938,08
805,68	18871,01
805,85	18839,26
806,03	18919,65
806,21	18759,91
806,38	18707,17
806,56	18879,71
806,73	18853,60
806,91	18788,07
807,09	18559,72
807,26	18566,88
807,44	18776,80
807,62	18728,16
807,79	18589,41
807,97	18399,46
808,14	18475,75
808,32	18320,62
808,50	18343,66
808,67	18138,86
808,85	18280,17
809,02	18274,54
809,20	17947,37
809,38	18107,12
809,55	17732,34
809,73	17976,05
809,90	17770,74
810,08	17814,77
810,26	17822,45
810,43	17701,62
810,61	17581,81
810,78	17697,01
810,96	17434,87
811,14	17387,77
811,31	17532,66
811,49	17443,06
811,66	17291,51
811,84	17571,57
812,02	17338,62
812,19	17311,99
812,37	17262,33
812,54	17208,57
812,72	17264,38
812,89	17022,72
813,07	17015,04
813,25	17082,11
813,42	16983,80
813,60	16744,70
813,77	17045,76
813,95	16685,83
814,12	17006,33
814,30	16763,65
814,47	16818,43
814,65	16767,23
814,83	16822,02
815,00	16649,47
815,18	16613,63
815,35	16521,48
815,53	16640,77
815,70	16320,26
815,88	16425,73
816,05	16442,12
816,23	16147,21
816,40	16348,42
816,58	16376,07
816,75	16179,98
816,93	16221,45
817,10	16110,86
817,28	16130,31
817,46	16008,46
817,63	15956,75
817,81	15925,52
817,98	15853,84
818,16	15816,46
818,33	15829,77
818,51	15715,09
818,68	15716,11
818,86	15829,77
819,03	15769,36
819,21	15559,95
819,38	15678,74
819,56	15584,53
819,73	15571,22
819,91	15526,16
820,08	15521,56
820,26	15340,82
820,43	15636,75
820,61	15351,57
820,78	15238,42
820,96	15358,74
821,13	15312,15
821,31	15185,18
821,48	15021,34
821,66	15158,04
821,83	15124,76
822,00	15135,00
822,18	14964,00
822,35	14915,87
822,53	15068,95
822,70	14800,67
822,88	14799,65
823,05	14774,05
823,23	14647,07
823,40	14567,71
823,58	14787,36
823,75	14688,03
823,93	14599,46
824,10	14467,88
824,28	14442,79
824,45	14572,83
824,62	14541,09
824,80	14605,60
824,97	14486,82
825,15	14500,13
825,32	14353,19
825,50	14344,49
825,67	14335,78
825,85	14260,52
826,02	14137,13
826,19	14069,55
826,37	14215,46
826,54	14071,59
826,72	14106,41
826,89	14041,39
827,07	13987,63
827,24	13962,03
827,41	13944,11
827,59	13922,60
827,76	13746,99
827,94	13735,21
828,11	13769,01
828,28	13688,11
828,46	13583,15
828,63	13542,19
828,81	13649,71
828,98	13693,23
829,15	13592,37
829,33	13516,08
829,50	13483,31
829,68	13410,61
829,85	13444,40
830,02	13511,47
830,20	13468,47
830,37	13276,47
830,55	13361,97
830,72	13258,55
830,89	13044,54
831,07	13162,30
831,24	13181,75
831,42	13143,35
831,59	13114,68
831,76	13023,03
831,94	13153,59
832,11	13052,73
832,28	13142,33
832,46	13038,39
832,63	12892,99
832,81	12905,79
832,98	12836,67
833,15	12777,28
833,33	12799,80
833,50	12824,89
833,67	12788,03
833,85	12846,91
834,02	12749,12
834,19	12635,97
834,37	12761,41
834,54	12609,86
834,71	12545,86
834,89	12636,99
835,06	12547,90
835,23	12528,96
835,41	12575,04
835,58	12377,92
835,75	12513,60
835,93	12219,72
836,10	12416,83
836,27	12288,84
836,45	12472,64
836,62	12307,27
836,79	12387,14
836,97	12101,45
837,14	12303,68
837,31	12180,29
837,49	12128,58
837,66	12030,79
837,83	12098,38
838,01	12042,06
838,18	12034,89
838,35	12079,94
838,53	12044,62
838,70	11980,62
838,87	12038,98
839,04	11933,00
839,22	11992,90
839,39	11782,99
839,56	11838,80
839,74	11824,46
839,91	11814,73
840,08	11821,39
840,26	11634,51
840,43	11598,16
840,60	11678,03
840,77	11588,94
840,95	11706,19
841,12	11565,39
841,29	11574,61
841,46	11480,91
841,64	11560,78
841,81	11464,53
841,98	11394,39
842,16	11440,47
842,33	11528,53
842,50	11314,52
842,67	11285,33
842,85	11171,16
843,02	11378,51
843,19	11263,32
843,36	11184,98
843,54	11217,75
843,71	11214,68
843,88	11096,41
844,05	10979,16
844,23	11040,09
844,40	10955,10
844,57	10972,50
844,74	10992,47
844,92	10924,38
845,09	10767,20
845,26	10850,65
845,43	10666,33
845,61	10812,25
845,78	10804,57
845,95	10633,05
846,12	10745,18
846,29	10699,10
846,47	10699,10
846,64	10560,35
846,81	10463,07
846,98	10375,01
847,16	10548,06
847,33	10484,58
847,50	10378,59
847,67	10264,93
847,84	10336,10
848,02	10300,26
848,19	10264,93
848,36	10274,15
848,53	10264,42
848,70	10343,78
848,88	10279,27
849,05	10249,06
849,22	10098,53
849,39	9993,06
849,56	10051,43
849,74	10043,75
849,91	10084,20
850,08	10061,67
850,25	10071,40
850,42	10005,86
850,60	9985,90
850,77	10090,34
850,94	10048,87
851,11	9915,24
851,28	9858,41
851,45	9909,10
851,63	9975,14
851,80	9927,53
851,97	9864,04
852,14	9734,00
852,31	9768,30
852,48	9622,38
852,66	9726,83
852,83	9640,30
853,00	9657,20
853,17	9527,15
853,34	9719,66
853,51	9557,36
853,68	9575,28
853,86	9555,31
854,03	9590,64
854,20	9505,13
854,37	9546,61
854,54	9647,47
854,71	9534,83
854,88	9410,42
855,06	9437,55
855,23	9339,25
855,40	9370,48
855,57	9188,21
855,74	9277,81
855,91	9364,34
856,08	9179,00
856,25	9322,87
856,43	9061,75
856,60	9112,95
856,77	9109,36
856,94	9089,91
857,11	9043,83
857,28	8964,47
857,45	9044,85
857,62	8906,10
857,79	9020,79
857,97	8932,22
858,14	8848,76
858,31	8927,61
858,48	8856,44
858,65	8749,43
858,82	8725,88
858,99	8811,39
859,16	8760,70
859,33	8589,18
859,50	8700,80
859,67	8608,12
859,85	8661,37
860,02	8642,94
860,19	8674,68
860,36	8681,34
860,53	8704,38
860,70	8536,96
860,87	8680,32
861,04	8633,72
861,21	8560,51
861,38	8524,67
861,55	8545,15
861,72	8572,29
861,89	8551,81
862,06	8377,73
862,23	8509,31
862,41	8257,92
862,58	8377,22
862,75	8317,31
862,92	8318,34
863,09	8270,72
863,26	8285,06
863,43	8366,46
863,60	8253,31
863,77	8236,42
863,94	8300,42
864,11	8212,35
864,28	8131,97
864,45	8093,57
864,62	8230,79
864,79	8128,90
864,96	8223,11
865,13	8214,40
865,30	8126,85
865,47	8180,10
865,64	7907,21
865,81	7988,61
865,98	7968,65
866,15	7819,66
866,32	7972,23
866,49	7882,63
866,66	7809,93
866,83	7678,35
867,00	7761,80
867,17	7816,58
867,34	7611,28
867,51	7819,66
867,68	7610,76
867,85	7693,71
868,02	7540,62
868,19	7525,77
868,36	7568,78
868,53	7520,14
868,70	7423,89
868,87	7388,56
869,04	7517,58
869,21	7420,30
869,38	7372,18
869,55	7363,98
869,72	7433,61
869,89	7274,38
870,06	7237,52
870,23	7157,65
870,40	7205,27
870,57	7203,73
870,74	7118,74
870,91	7096,72
871,08	7065,49
871,25	7016,85
871,42	7131,54
871,59	7106,45
871,76	6965,14
871,93	6891,93
872,10	6986,65
872,27	7014,80
872,44	6901,65
872,60	6834,58
872,77	6875,03
872,94	6864,28
873,11	6833,05
873,28	6839,70
873,45	6774,68
873,62	6759,83
873,79	6706,59
873,96	6599,58
874,13	6719,90
874,30	6580,64
874,47	6689,18
874,64	6682,52
874,81	6652,83
874,97	6566,81
875,14	6620,06
875,31	6550,94
875,48	6585,76
875,65	6505,37
875,82	6500,25
875,99	6580,12
876,16	6495,64
876,33	6568,35
876,50	6485,41
876,67	6398,37
876,83	6376,35
877,00	6349,73
877,17	6359,45
877,34	6207,91
877,51	6259,62
877,68	6216,61
877,85	6279,58
878,02	6137,76
878,19	6256,54
878,35	6095,78
878,52	6162,85
878,69	6028,20
878,86	6074,79
879,03	6012,84
879,20	6112,16
879,37	6029,73
879,54	6020,00
879,70	6062,50
879,87	5836,20
880,04	5944,23
880,21	5859,75
880,38	5844,39
880,55	5881,25
880,72	5872,04
880,89	5748,65
881,05	5865,89
881,22	5750,70
881,39	5667,75
881,56	5648,30
881,73	5553,07
881,90	5750,18
882,06	5608,36
882,23	5469,10
882,40	5564,33
882,57	5572,52
882,74	5602,22
882,91	5569,45
883,07	5407,15
883,24	5551,02
883,41	5469,61
883,58	5345,20
883,75	5406,64
883,92	5360,56
884,08	5316,53
884,25	5337,52
884,42	5220,78
884,59	5255,60
884,76	5264,82
884,92	5155,76
885,09	5158,83
885,26	5184,43
885,43	5088,18
885,60	5199,79
885,76	5090,23
885,93	5117,36
886,10	5094,32
886,27	5148,08
886,44	5100,98
886,60	5103,03
886,77	5002,68
886,94	4967,86
887,11	4902,33
887,28	4871,61
887,44	4924,85
887,61	4863,41
887,78	4907,45
887,95	4760,50
888,12	4830,65
888,28	4827,06
888,45	4706,74
888,62	4722,10
888,79	4748,22
888,95	4678,58
889,12	4711,35
889,29	4705,72
889,46	4631,48
889,62	4774,84
889,79	4621,24
889,96	4484,54
890,13	4579,77
890,29	4573,63
890,46	4511,68
890,63	4509,12
890,80	4466,11
890,96	4431,80
891,13	4339,13
891,30	4390,33
891,47	4373,44
891,63	4467,64
891,80	4352,96
891,97	4381,63
892,14	4312,51
892,30	4325,31
892,47	4330,43
892,64	4254,66
892,80	4300,73
892,97	4249,54
893,14	4176,32
893,31	4222,91
893,47	4101,57
893,64	4204,48
893,81	4137,41
893,97	4152,26
894,14	4061,63
>>>>>End Processed Spectral Data<<<<<
