SpectraSuite Datei
++++++++++++++++++++++++++++++++++++
Datum: Mon Dec 11 15:09:47 CET 2017
Benutzer: Praktikum-Pc1
Dark-Spektrum vorhanden: Ja
Referenz-Spektrum vorhanden: Nein
Zahl der probierten Teilspektren: 1
Spektrometer: USB4H10187
Integrationszeit (usec): 150000 (USB4H10187)
Spektren Durchschnitt berechnet: 4 (USB4H10187)
Boxcar Glättung: 0 (USB4H10187)
Dunkelstromkorrektur: Nein (USB4H10187)
Puls/Lampe aktiviert: Nein (USB4H10187)
Correct for Detector Non-linearity: Nein (USB4H10187)
Streulichtkorrektur: Nein (USB4H10187)
Anzahl Pixel in verarbeitetem Spektrum: 3648
>>>>>Begin Processed Spectral Data<<<<<
176,80	-5,63
177,02	-5,63
177,24	-5,63
177,46	3,58
177,68	11,26
177,91	139,77
178,13	158,21
178,35	127,49
178,57	61,44
178,79	137,73
179,02	200,19
179,24	80,89
179,46	136,19
179,68	77,31
179,90	65,02
180,12	154,62
180,35	103,93
180,57	80,38
180,79	155,65
181,01	102,91
181,23	100,35
181,46	86,01
181,68	131,58
181,90	116,73
182,12	205,31
182,34	170,49
182,56	126,97
182,79	82,94
183,01	107,01
183,23	107,52
183,45	127,49
183,67	15,87
183,89	117,76
184,12	153,09
184,34	130,56
184,56	188,93
184,78	114,17
185,00	143,36
185,22	108,54
185,45	68,61
185,67	169,47
185,89	150,53
186,11	65,02
186,33	160,25
186,55	167,42
186,77	127,49
187,00	145,41
187,22	145,92
187,44	90,11
187,66	76,29
187,88	90,62
188,10	199,68
188,32	77,31
188,55	150,01
188,77	183,81
188,99	107,52
189,21	160,25
189,43	147,97
189,65	87,55
189,87	139,77
190,10	196,09
190,32	104,96
190,54	113,15
190,76	148,48
190,98	90,11
191,20	158,72
191,42	99,33
191,64	61,95
191,87	107,52
192,09	119,29
192,31	56,83
192,53	97,28
192,75	126,46
192,97	96,77
193,19	130,56
193,41	77,31
193,64	144,89
193,86	76,80
194,08	135,17
194,30	16,90
194,52	109,05
194,74	136,19
194,96	19,46
195,18	118,27
195,40	56,32
195,63	87,04
195,85	38,40
196,07	62,46
196,29	120,32
196,51	109,57
196,73	145,92
196,95	119,81
197,17	81,92
197,39	130,56
197,61	181,25
197,84	137,21
198,06	97,28
198,28	102,91
198,50	7,68
198,72	150,01
198,94	150,01
199,16	165,37
199,38	192,51
199,60	38,91
199,82	80,89
200,04	119,81
200,26	118,78
200,49	91,13
200,71	43,52
200,93	175,10
201,15	108,54
201,37	49,15
201,59	118,78
201,81	113,66
202,03	177,15
202,25	85,50
202,47	68,61
202,69	103,42
202,91	91,13
203,13	78,85
203,35	128,00
203,58	69,63
203,80	159,23
204,02	15,36
204,24	-25,09
204,46	122,88
204,68	152,57
204,90	111,10
205,12	136,19
205,34	118,78
205,56	125,95
205,78	147,45
206,00	88,06
206,22	73,21
206,44	81,41
206,66	41,98
206,88	165,89
207,10	69,63
207,32	187,39
207,54	107,01
207,76	103,93
207,99	111,10
208,21	97,28
208,43	163,33
208,65	14,34
208,87	108,54
209,09	111,10
209,31	109,57
209,53	55,81
209,75	168,96
209,97	140,29
210,19	101,37
210,41	106,49
210,63	93,69
210,85	94,21
211,07	193,02
211,29	120,83
211,51	164,86
211,73	128,00
211,95	147,97
212,17	107,01
212,39	120,83
212,61	84,48
212,83	42,50
213,05	130,05
213,27	185,34
213,49	113,66
213,71	95,23
213,93	126,46
214,15	138,75
214,37	153,60
214,59	120,83
214,81	129,02
215,03	90,62
215,25	114,69
215,47	114,69
215,69	102,40
215,91	102,91
216,13	117,76
216,35	136,70
216,57	41,98
216,79	124,93
217,01	100,35
217,23	114,69
217,45	90,62
217,67	185,85
217,89	204,80
218,11	126,46
218,33	103,42
218,55	59,39
218,77	110,59
218,99	65,02
219,21	103,93
219,43	86,53
219,65	175,61
219,87	199,16
220,09	136,70
220,31	117,76
220,53	104,96
220,75	116,73
220,97	72,19
221,19	55,81
221,41	53,25
221,63	93,18
221,85	112,64
222,06	116,73
222,28	137,73
222,50	98,30
222,72	101,89
222,94	58,88
223,16	79,87
223,38	174,08
223,60	44,54
223,82	127,49
224,04	182,27
224,26	112,64
224,48	85,50
224,70	163,84
224,92	92,67
225,14	123,39
225,36	181,76
225,58	83,97
225,80	123,90
226,02	154,11
226,24	105,47
226,45	85,50
226,67	97,28
226,89	23,04
227,11	114,17
227,33	137,73
227,55	0,51
227,77	98,30
227,99	101,89
228,21	93,18
228,43	99,33
228,65	70,14
228,87	129,02
229,09	-1,54
229,31	4,10
229,52	102,91
229,74	13,82
229,96	149,50
230,18	87,55
230,40	114,69
230,62	138,24
230,84	157,18
231,06	3,07
231,28	97,79
231,50	78,85
231,72	84,99
231,94	56,83
232,15	129,02
232,37	56,32
232,59	52,74
232,81	184,83
233,03	59,90
233,25	122,88
233,47	88,06
233,69	84,99
233,91	52,74
234,13	27,65
234,34	76,29
234,56	52,22
234,78	142,85
235,00	25,09
235,22	82,94
235,44	25,60
235,66	41,47
235,88	63,49
236,10	179,20
236,31	80,89
236,53	124,41
236,75	113,66
236,97	66,56
237,19	142,33
237,41	113,15
237,63	185,34
237,85	143,36
238,07	105,47
238,28	37,89
238,50	93,69
238,72	109,05
238,94	148,48
239,16	79,36
239,38	129,02
239,60	125,95
239,81	54,78
240,03	107,52
240,25	62,98
240,47	139,26
240,69	82,94
240,91	145,92
241,13	225,28
241,34	134,65
241,56	114,17
241,78	104,96
242,00	67,07
242,22	68,09
242,44	187,39
242,66	75,26
242,87	56,83
243,09	100,86
243,31	73,21
243,53	73,21
243,75	141,31
243,97	91,65
244,19	123,39
244,40	165,37
244,62	77,82
244,84	200,19
245,06	114,17
245,28	79,87
245,50	110,59
245,71	171,52
245,93	92,67
246,15	128,00
246,37	116,22
246,59	194,56
246,81	65,02
247,02	24,06
247,24	130,05
247,46	62,46
247,68	98,81
247,90	122,88
248,11	56,83
248,33	77,31
248,55	120,83
248,77	24,58
248,99	112,64
249,21	45,57
249,42	98,30
249,64	205,31
249,86	99,33
250,08	122,88
250,30	53,76
250,51	94,72
250,73	-4,10
250,95	54,27
251,17	158,72
251,39	86,53
251,60	183,29
251,82	177,15
252,04	118,78
252,26	53,76
252,48	80,89
252,69	158,21
252,91	156,67
253,13	96,25
253,35	167,93
253,57	111,10
253,78	85,50
254,00	120,32
254,22	104,96
254,44	50,69
254,65	96,25
254,87	83,97
255,09	97,28
255,31	88,57
255,53	128,00
255,74	71,68
255,96	132,09
256,18	136,70
256,40	124,41
256,61	53,76
256,83	189,44
257,05	111,10
257,27	162,81
257,48	78,85
257,70	129,53
257,92	129,02
258,14	109,05
258,36	76,29
258,57	163,33
258,79	71,17
259,01	121,85
259,23	80,89
259,44	79,87
259,66	141,31
259,88	160,77
260,10	74,75
260,31	110,08
260,53	187,90
260,75	47,10
260,97	148,99
261,18	108,54
261,40	192,51
261,62	65,02
261,84	125,44
262,05	71,17
262,27	142,33
262,49	72,19
262,71	146,94
262,92	129,02
263,14	65,02
263,36	117,25
263,57	185,85
263,79	146,43
264,01	104,45
264,23	89,09
264,44	122,37
264,66	104,96
264,88	121,34
265,10	58,88
265,31	146,94
265,53	39,94
265,75	118,78
265,96	120,32
266,18	164,35
266,40	133,63
266,62	136,70
266,83	128,00
267,05	43,01
267,27	118,27
267,48	199,16
267,70	8,19
267,92	121,85
268,14	98,81
268,35	136,19
268,57	169,47
268,79	183,29
269,00	140,80
269,22	125,95
269,44	119,81
269,65	120,83
269,87	77,82
270,09	132,61
270,31	99,84
270,52	149,50
270,74	121,34
270,96	53,76
271,17	171,01
271,39	60,42
271,61	161,28
271,82	166,40
272,04	132,09
272,26	124,41
272,47	153,09
272,69	93,18
272,91	47,10
273,12	109,05
273,34	145,41
273,56	73,21
273,77	43,01
273,99	97,79
274,21	159,23
274,42	70,14
274,64	125,44
274,86	20,48
275,08	117,76
275,29	26,11
275,51	161,79
275,72	80,89
275,94	144,89
276,16	88,57
276,37	90,11
276,59	44,54
276,81	50,18
277,02	93,69
277,24	111,10
277,46	130,56
277,67	32,26
277,89	141,82
278,11	160,77
278,32	134,65
278,54	-23,04
278,76	242,17
278,97	184,83
279,19	105,98
279,41	108,03
279,62	91,13
279,84	179,71
280,05	98,30
280,27	81,41
280,49	54,78
280,70	135,17
280,92	102,91
281,14	81,41
281,35	-40,96
281,57	101,37
281,79	51,71
282,00	143,87
282,22	207,87
282,43	133,12
282,65	97,79
282,87	63,49
283,08	116,73
283,30	180,73
283,52	195,07
283,73	66,05
283,95	126,46
284,16	62,98
284,38	145,92
284,60	140,29
284,81	154,11
285,03	83,97
285,24	78,85
285,46	138,24
285,68	94,21
285,89	111,10
286,11	53,25
286,32	185,85
286,54	154,11
286,76	104,45
286,97	162,30
287,19	59,39
287,40	92,16
287,62	152,06
287,84	99,84
288,05	105,98
288,27	127,49
288,48	87,55
288,70	81,41
288,92	101,37
289,13	78,33
289,35	114,69
289,56	88,57
289,78	124,41
289,99	150,01
290,21	135,68
290,43	72,70
290,64	108,03
290,86	129,53
291,07	115,71
291,29	152,06
291,51	97,79
291,72	148,99
291,94	133,63
292,15	131,07
292,37	144,38
292,58	98,30
292,80	139,26
293,01	95,74
293,23	138,75
293,45	134,65
293,66	87,04
293,88	204,28
294,09	0,00
294,31	107,52
294,52	103,93
294,74	68,09
294,96	124,41
295,17	62,98
295,39	131,07
295,60	123,90
295,82	83,97
296,03	136,70
296,25	32,77
296,46	125,95
296,68	85,50
296,89	80,38
297,11	105,98
297,32	202,24
297,54	196,61
297,76	130,05
297,97	89,60
298,19	135,17
298,40	143,87
298,62	150,01
298,83	141,82
299,05	154,11
299,26	133,12
299,48	68,61
299,69	176,13
299,91	22,02
300,12	147,97
300,34	147,45
300,55	129,53
300,77	146,43
300,98	36,35
301,20	71,17
301,41	24,06
301,63	108,54
301,84	104,45
302,06	150,53
302,28	25,60
302,49	95,23
302,71	226,30
302,92	-18,43
303,14	102,91
303,35	157,18
303,57	88,06
303,78	120,32
304,00	123,39
304,21	57,86
304,43	92,67
304,64	110,59
304,86	72,19
305,07	119,29
305,29	118,27
305,50	88,06
305,71	137,21
305,93	126,97
306,14	201,72
306,36	156,67
306,57	87,04
306,79	157,69
307,00	17,41
307,22	132,61
307,43	82,43
307,65	168,45
307,86	117,76
308,08	104,96
308,29	121,34
308,51	52,22
308,72	153,09
308,94	129,53
309,15	119,29
309,37	73,73
309,58	39,42
309,80	104,45
310,01	100,86
310,22	88,57
310,44	89,60
310,65	109,05
310,87	96,25
311,08	169,47
311,30	44,54
311,51	133,12
311,73	99,33
311,94	45,57
312,16	85,50
312,37	163,84
312,58	180,22
312,80	66,56
313,01	106,49
313,23	92,16
313,44	98,30
313,66	59,90
313,87	203,77
314,09	12,80
314,30	77,31
314,51	102,40
314,73	83,97
314,94	113,66
315,16	136,19
315,37	138,75
315,59	65,53
315,80	47,10
316,01	119,29
316,23	119,29
316,44	160,25
316,66	151,04
316,87	188,93
317,09	121,85
317,30	117,76
317,51	93,69
317,73	171,52
317,94	68,09
318,16	161,79
318,37	70,65
318,58	-84,99
318,80	133,12
319,01	54,78
319,23	209,92
319,44	68,61
319,66	93,69
319,87	138,24
320,08	148,99
320,30	98,81
320,51	82,43
320,73	102,40
320,94	163,33
321,15	98,30
321,37	125,44
321,58	89,09
321,80	175,10
322,01	115,71
322,22	45,57
322,44	107,52
322,65	137,21
322,86	101,89
323,08	144,38
323,29	107,52
323,51	74,24
323,72	119,81
323,93	157,69
324,15	125,44
324,36	104,96
324,58	99,84
324,79	141,31
325,00	151,04
325,22	90,62
325,43	111,61
325,64	101,37
325,86	92,16
326,07	52,22
326,28	173,05
326,50	140,80
326,71	52,22
326,93	63,49
327,14	157,69
327,35	41,47
327,57	133,63
327,78	126,97
327,99	143,36
328,21	108,54
328,42	140,29
328,63	131,07
328,85	86,01
329,06	118,27
329,27	131,58
329,49	124,41
329,70	52,22
329,91	163,33
330,13	59,39
330,34	129,53
330,56	-11,78
330,77	59,90
330,98	138,24
331,20	106,49
331,41	189,95
331,62	115,71
331,84	72,70
332,05	97,79
332,26	210,43
332,48	132,09
332,69	95,74
332,90	125,44
333,11	88,06
333,33	95,74
333,54	139,77
333,75	35,33
333,97	5,12
334,18	120,83
334,39	175,61
334,61	113,15
334,82	183,81
335,03	82,43
335,25	128,51
335,46	106,49
335,67	167,42
335,89	129,53
336,10	101,37
336,31	127,49
336,53	91,65
336,74	164,35
336,95	165,89
337,16	90,11
337,38	86,01
337,59	227,32
337,80	79,87
338,02	122,88
338,23	190,97
338,44	107,01
338,65	114,69
338,87	136,19
339,08	136,70
339,29	197,12
339,51	139,77
339,72	88,06
339,93	163,84
340,14	130,05
340,36	170,49
340,57	145,41
340,78	75,26
341,00	48,64
341,21	125,95
341,42	208,89
341,63	69,63
341,85	52,22
342,06	97,79
342,27	116,73
342,49	143,36
342,70	128,00
342,91	122,88
343,12	137,73
343,34	148,48
343,55	83,45
343,76	158,72
343,97	133,63
344,19	147,45
344,40	105,47
344,61	123,39
344,82	122,88
345,04	75,26
345,25	158,72
345,46	71,17
345,67	113,66
345,89	83,97
346,10	137,73
346,31	82,43
346,52	60,93
346,74	62,98
346,95	163,33
347,16	40,96
347,37	64,51
347,59	87,04
347,80	86,01
348,01	135,17
348,22	179,20
348,43	79,87
348,65	83,45
348,86	125,95
349,07	178,69
349,28	113,15
349,50	137,73
349,71	146,43
349,92	78,85
350,13	121,85
350,34	73,73
350,56	110,08
350,77	166,40
350,98	110,59
351,19	139,77
351,41	140,80
351,62	207,87
351,83	31,74
352,04	140,29
352,25	147,97
352,47	126,46
352,68	221,69
352,89	30,21
353,10	141,31
353,31	134,14
353,53	131,58
353,74	104,96
353,95	103,93
354,16	175,10
354,37	133,63
354,59	151,55
354,80	162,30
355,01	102,40
355,22	74,75
355,43	63,49
355,65	59,90
355,86	201,21
356,07	128,00
356,28	107,52
356,49	51,20
356,70	122,37
356,92	98,30
357,13	36,35
357,34	130,56
357,55	164,86
357,76	171,52
357,98	31,74
358,19	166,40
358,40	87,55
358,61	80,38
358,82	72,70
359,03	74,75
359,25	181,25
359,46	190,97
359,67	106,49
359,88	83,97
360,09	112,64
360,30	119,29
360,51	89,60
360,73	163,33
360,94	126,46
361,15	16,90
361,36	48,13
361,57	127,49
361,78	73,21
362,00	49,66
362,21	142,85
362,42	210,94
362,63	91,13
362,84	72,70
363,05	16,90
363,26	101,89
363,48	130,05
363,69	145,41
363,90	80,38
364,11	56,32
364,32	67,58
364,53	65,02
364,74	71,68
364,95	77,31
365,17	73,21
365,38	125,44
365,59	136,70
365,80	120,32
366,01	64,00
366,22	109,57
366,43	65,02
366,64	129,53
366,86	86,01
367,07	48,13
367,28	153,09
367,49	118,27
367,70	174,08
367,91	86,01
368,12	55,30
368,33	31,74
368,54	175,10
368,76	107,01
368,97	111,61
369,18	56,83
369,39	26,62
369,60	55,30
369,81	114,69
370,02	81,41
370,23	94,72
370,44	67,58
370,65	48,13
370,87	59,90
371,08	143,87
371,29	145,41
371,50	141,31
371,71	131,58
371,92	155,65
372,13	103,93
372,34	67,07
372,55	64,51
372,76	119,81
372,97	110,59
373,18	156,16
373,40	82,43
373,61	118,78
373,82	117,76
374,03	137,21
374,24	144,89
374,45	41,98
374,66	172,03
374,87	203,26
375,08	90,62
375,29	71,17
375,50	107,01
375,71	78,85
375,92	139,26
376,13	13,31
376,34	102,91
376,56	77,31
376,77	118,78
376,98	94,72
377,19	120,32
377,40	46,59
377,61	145,92
377,82	105,47
378,03	129,02
378,24	98,81
378,45	117,25
378,66	81,92
378,87	88,06
379,08	90,62
379,29	75,77
379,50	172,54
379,71	22,02
379,92	62,46
380,13	62,98
380,34	105,47
380,55	170,49
380,76	109,05
380,97	193,53
381,18	89,09
381,39	93,69
381,60	216,06
381,81	55,30
382,02	122,37
382,24	76,29
382,45	69,63
382,66	69,12
382,87	141,31
383,08	119,81
383,29	48,13
383,50	148,99
383,71	77,31
383,92	67,58
384,13	69,63
384,34	155,65
384,55	84,99
384,76	93,69
384,97	97,28
385,18	54,27
385,39	81,92
385,60	52,74
385,81	123,90
386,02	139,26
386,23	131,58
386,44	48,13
386,65	113,66
386,86	75,77
387,07	99,84
387,28	77,82
387,49	97,79
387,70	93,18
387,91	146,43
388,12	122,37
388,32	31,23
388,53	113,15
388,74	97,79
388,95	29,70
389,16	67,58
389,37	68,61
389,58	108,54
389,79	168,45
390,00	90,11
390,21	138,75
390,42	78,85
390,63	143,36
390,84	23,04
391,05	145,92
391,26	187,39
391,47	51,71
391,68	104,96
391,89	157,18
392,10	155,13
392,31	138,75
392,52	87,55
392,73	26,62
392,94	193,53
393,15	44,54
393,36	114,17
393,57	90,11
393,78	72,19
393,98	187,39
394,19	59,90
394,40	175,10
394,61	73,73
394,82	93,18
395,03	111,10
395,24	135,17
395,45	74,24
395,66	67,58
395,87	2,05
396,08	35,33
396,29	153,60
396,50	116,73
396,71	98,81
396,92	54,27
397,12	129,53
397,33	119,81
397,54	62,98
397,75	91,65
397,96	120,83
398,17	100,86
398,38	45,57
398,59	138,75
398,80	-34,82
399,01	135,17
399,22	97,28
399,43	90,62
399,63	165,89
399,84	101,89
400,05	113,66
400,26	75,26
400,47	112,64
400,68	147,45
400,89	125,44
401,10	107,52
401,31	124,41
401,52	81,41
401,72	94,21
401,93	6,14
402,14	93,18
402,35	167,93
402,56	134,14
402,77	55,81
402,98	128,00
403,19	90,11
403,40	135,68
403,60	84,48
403,81	164,86
404,02	99,33
404,23	168,45
404,44	122,37
404,65	60,42
404,86	111,61
405,07	62,98
405,27	61,44
405,48	44,54
405,69	57,86
405,90	109,57
406,11	153,60
406,32	118,78
406,53	99,84
406,74	95,74
406,94	47,62
407,15	110,59
407,36	41,47
407,57	95,74
407,78	94,72
407,99	114,17
408,20	98,81
408,40	103,42
408,61	99,84
408,82	152,57
409,03	104,96
409,24	99,84
409,45	67,58
409,65	124,93
409,86	129,02
410,07	55,30
410,28	94,72
410,49	124,93
410,70	216,06
410,90	139,77
411,11	114,69
411,32	55,30
411,53	142,33
411,74	107,01
411,95	121,34
412,15	184,83
412,36	9,73
412,57	124,93
412,78	132,09
412,99	123,39
413,20	71,17
413,40	87,55
413,61	113,66
413,82	131,58
414,03	102,91
414,24	150,53
414,44	133,12
414,65	69,12
414,86	47,10
415,07	116,22
415,28	132,09
415,48	103,93
415,69	69,12
415,90	105,47
416,11	128,51
416,32	122,37
416,53	49,66
416,73	198,65
416,94	83,97
417,15	80,89
417,36	147,97
417,56	138,24
417,77	35,84
417,98	43,52
418,19	191,49
418,40	122,37
418,60	57,86
418,81	119,81
419,02	95,23
419,23	12,29
419,44	16,90
419,64	101,89
419,85	138,75
420,06	114,17
420,27	126,46
420,47	25,09
420,68	178,69
420,89	146,94
421,10	64,00
421,30	125,95
421,51	186,88
421,72	107,01
421,93	71,17
422,14	173,57
422,34	100,86
422,55	82,94
422,76	52,74
422,97	94,72
423,17	110,08
423,38	116,73
423,59	41,47
423,80	106,49
424,00	97,79
424,21	157,18
424,42	93,18
424,63	70,14
424,83	46,59
425,04	176,13
425,25	56,32
425,46	159,23
425,66	83,45
425,87	154,62
426,08	112,64
426,28	157,18
426,49	127,49
426,70	164,35
426,91	142,33
427,11	155,65
427,32	179,71
427,53	108,03
427,74	126,97
427,94	78,33
428,15	196,61
428,36	117,25
428,56	61,95
428,77	121,34
428,98	88,06
429,19	163,84
429,39	138,24
429,60	74,24
429,81	79,87
430,01	182,27
430,22	125,95
430,43	84,48
430,64	35,33
430,84	8,70
431,05	106,49
431,26	102,40
431,46	102,40
431,67	51,71
431,88	97,28
432,08	142,85
432,29	33,79
432,50	49,15
432,70	181,76
432,91	98,81
433,12	78,85
433,33	136,19
433,53	66,56
433,74	97,28
433,95	125,95
434,15	83,97
434,36	98,30
434,57	176,13
434,77	34,30
434,98	115,71
435,19	106,49
435,39	57,86
435,60	45,06
435,81	129,02
436,01	70,65
436,22	83,97
436,43	155,13
436,63	155,13
436,84	71,68
437,05	-12,29
437,25	4,10
437,46	174,08
437,67	73,73
437,87	110,08
438,08	37,38
438,29	76,80
438,49	135,17
438,70	113,66
438,91	105,47
439,11	37,89
439,32	149,50
439,52	149,50
439,73	133,12
439,94	113,66
440,14	109,05
440,35	61,95
440,56	55,30
440,76	109,57
440,97	58,88
441,18	80,89
441,38	87,55
441,59	102,91
441,79	71,17
442,00	125,44
442,21	82,43
442,41	120,32
442,62	56,83
442,83	127,49
443,03	83,45
443,24	166,40
443,44	84,99
443,65	105,98
443,86	79,36
444,06	0,00
444,27	78,85
444,48	79,36
444,68	94,72
444,89	53,25
445,09	88,57
445,30	131,07
445,51	125,95
445,71	107,52
445,92	91,65
446,12	78,33
446,33	146,94
446,54	173,05
446,74	90,11
446,95	119,81
447,15	117,76
447,36	146,43
447,57	76,80
447,77	114,17
447,98	137,21
448,18	69,12
448,39	60,42
448,59	49,15
448,80	81,41
449,01	59,90
449,21	46,59
449,42	82,43
449,62	80,89
449,83	83,97
450,04	113,15
450,24	88,57
450,45	145,41
450,65	95,74
450,86	196,09
451,06	131,07
451,27	115,20
451,47	-23,04
451,68	127,49
451,89	72,19
452,09	54,78
452,30	52,74
452,50	165,37
452,71	163,84
452,91	91,13
453,12	130,56
453,33	185,34
453,53	50,18
453,74	48,13
453,94	121,85
454,15	94,21
454,35	112,64
454,56	62,98
454,76	148,48
454,97	143,36
455,17	106,49
455,38	35,84
455,58	46,59
455,79	146,94
456,00	158,72
456,20	38,91
456,41	101,89
456,61	104,45
456,82	100,86
457,02	100,35
457,23	190,97
457,43	86,01
457,64	81,41
457,84	39,42
458,05	141,82
458,25	105,47
458,46	78,33
458,66	88,57
458,87	-0,00
459,07	97,79
459,28	181,76
459,48	124,93
459,69	44,54
459,89	158,21
460,10	159,23
460,30	101,89
460,51	115,20
460,71	134,14
460,92	138,75
461,12	117,76
461,33	36,86
461,53	95,74
461,74	34,30
461,94	113,66
462,15	109,57
462,35	67,07
462,56	125,95
462,76	64,51
462,97	89,60
463,17	-23,55
463,38	96,77
463,58	116,22
463,79	96,77
463,99	58,88
464,20	158,21
464,40	110,08
464,61	68,61
464,81	148,48
465,02	75,77
465,22	80,89
465,43	-4,10
465,63	163,84
465,83	38,40
466,04	156,67
466,24	78,85
466,45	224,25
466,65	162,30
466,86	87,04
467,06	20,48
467,27	86,01
467,47	113,66
467,68	139,26
467,88	64,51
468,08	143,87
468,29	113,66
468,49	147,97
468,70	135,68
468,90	120,32
469,11	177,66
469,31	57,34
469,52	131,58
469,72	125,95
469,92	152,06
470,13	118,27
470,33	92,67
470,54	140,80
470,74	194,05
470,95	120,32
471,15	97,79
471,35	53,25
471,56	102,91
471,76	106,49
471,97	115,71
472,17	31,23
472,38	-0,51
472,58	126,46
472,78	178,69
472,99	121,85
473,19	123,90
473,40	121,85
473,60	114,69
473,80	103,42
474,01	82,43
474,21	84,99
474,42	111,10
474,62	112,13
474,83	84,48
475,03	97,79
475,23	78,85
475,44	106,49
475,64	147,45
475,85	114,69
476,05	98,81
476,25	128,51
476,46	100,86
476,66	94,21
476,86	133,12
477,07	174,59
477,27	158,21
477,48	100,86
477,68	77,31
477,88	160,25
478,09	-10,75
478,29	67,07
478,50	71,68
478,70	89,09
478,90	58,37
479,11	8,70
479,31	106,49
479,51	177,15
479,72	134,65
479,92	30,21
480,12	99,84
480,33	4,61
480,53	150,01
480,74	99,84
480,94	176,13
481,14	174,08
481,35	76,29
481,55	101,37
481,75	56,32
481,96	121,85
482,16	134,65
482,36	145,92
482,57	115,20
482,77	95,23
482,97	48,13
483,18	114,17
483,38	142,33
483,58	98,30
483,79	45,06
483,99	117,25
484,19	103,42
484,40	84,48
484,60	132,09
484,80	117,76
485,01	113,15
485,21	122,37
485,41	47,62
485,62	171,01
485,82	46,59
486,02	41,47
486,23	130,56
486,43	100,35
486,63	17,92
486,84	167,42
487,04	122,37
487,24	84,99
487,45	92,16
487,65	49,15
487,85	103,42
488,06	111,10
488,26	61,44
488,46	115,20
488,67	54,27
488,87	75,77
489,07	55,30
489,27	116,22
489,48	65,02
489,68	127,49
489,88	102,91
490,09	86,53
490,29	79,36
490,49	57,34
490,70	153,09
490,90	167,93
491,10	104,96
491,30	177,66
491,51	32,26
491,71	154,62
491,91	173,05
492,12	107,01
492,32	59,39
492,52	74,75
492,72	83,97
492,93	93,69
493,13	103,93
493,33	170,49
493,53	174,08
493,74	48,13
493,94	99,33
494,14	72,19
494,34	133,63
494,55	26,62
494,75	96,25
494,95	139,77
495,16	186,37
495,36	31,23
495,56	146,43
495,76	78,33
495,97	125,44
496,17	74,24
496,37	98,30
496,57	141,82
496,78	39,94
496,98	95,74
497,18	49,15
497,38	96,77
497,59	74,24
497,79	98,30
497,99	135,17
498,19	61,44
498,39	112,13
498,60	74,24
498,80	29,18
499,00	166,91
499,20	187,90
499,41	123,90
499,61	128,51
499,81	134,14
500,01	170,49
500,22	116,22
500,42	56,32
500,62	162,81
500,82	145,92
501,02	77,31
501,23	117,76
501,43	119,29
501,63	131,58
501,83	90,11
502,03	123,90
502,24	92,16
502,44	94,21
502,64	125,95
502,84	98,30
503,05	115,71
503,25	82,43
503,45	24,06
503,65	109,57
503,85	151,55
504,06	97,79
504,26	83,97
504,46	109,05
504,66	60,93
504,86	134,65
505,06	83,97
505,27	91,13
505,47	53,25
505,67	152,57
505,87	51,71
506,07	117,76
506,28	136,19
506,48	92,16
506,68	107,52
506,88	62,98
507,08	104,96
507,28	139,26
507,49	61,95
507,69	80,38
507,89	119,81
508,09	50,18
508,29	172,03
508,49	82,94
508,70	76,29
508,90	110,08
509,10	136,70
509,30	26,62
509,50	72,19
509,70	130,05
509,91	213,50
510,11	81,41
510,31	33,28
510,51	-4,61
510,71	106,49
510,91	94,21
511,11	46,08
511,32	155,13
511,52	130,56
511,72	146,43
511,92	80,38
512,12	65,53
512,32	-19,46
512,52	61,44
512,73	59,39
512,93	154,62
513,13	60,42
513,33	118,27
513,53	138,75
513,73	167,93
513,93	114,17
514,13	78,33
514,34	101,37
514,54	153,09
514,74	125,44
514,94	129,02
515,14	139,26
515,34	84,48
515,54	85,50
515,74	218,62
515,94	139,77
516,15	176,13
516,35	141,82
516,55	77,31
516,75	165,89
516,95	93,69
517,15	29,18
517,35	41,98
517,55	166,91
517,75	132,61
517,95	129,02
518,16	136,19
518,36	-8,70
518,56	112,13
518,76	152,06
518,96	190,97
519,16	97,79
519,36	125,44
519,56	200,70
519,76	166,91
519,96	89,09
520,16	138,75
520,37	37,89
520,57	94,21
520,77	154,62
520,97	94,72
521,17	117,25
521,37	164,86
521,57	99,84
521,77	145,41
521,97	117,25
522,17	92,16
522,37	202,24
522,57	76,29
522,77	64,00
522,97	152,57
523,17	80,89
523,37	71,68
523,58	208,89
523,78	21,50
523,98	147,97
524,18	166,40
524,38	133,12
524,58	189,95
524,78	82,94
524,98	95,74
525,18	139,77
525,38	73,21
525,58	115,20
525,78	92,67
525,98	78,33
526,18	213,50
526,38	123,39
526,58	126,46
526,78	103,42
526,98	102,40
527,18	177,15
527,38	157,18
527,58	152,57
527,78	164,35
527,98	178,69
528,18	179,71
528,38	198,14
528,58	151,55
528,78	233,98
528,98	199,68
529,18	164,86
529,38	102,40
529,58	180,22
529,78	202,24
529,98	223,74
530,18	188,41
530,38	301,56
530,58	321,53
530,78	729,59
530,98	2956,75
531,18	8703,87
531,38	18681,57
531,58	31015,46
531,78	43420,52
531,98	55263,92
532,18	57808,53
532,38	52408,03
532,58	44317,53
532,78	32408,08
532,98	22292,14
533,18	12593,47
533,38	7819,14
533,58	5286,83
533,78	3670,98
533,98	2441,69
534,18	1655,27
534,38	1091,06
534,58	592,89
534,78	521,21
534,98	343,03
535,18	297,98
535,38	317,95
535,58	271,36
535,78	160,77
535,98	122,37
536,18	159,23
536,38	247,29
536,58	151,04
536,78	205,31
536,98	200,19
537,18	168,45
537,38	139,26
537,58	201,72
537,78	140,29
537,98	237,05
538,17	218,62
538,37	173,05
538,57	101,89
538,77	74,24
538,97	90,62
539,17	70,14
539,37	100,86
539,57	71,17
539,77	158,72
539,97	72,19
540,17	108,54
540,37	122,88
540,57	101,37
540,77	100,35
540,97	137,73
541,16	108,54
541,36	105,98
541,56	114,69
541,76	84,48
541,96	110,08
542,16	183,29
542,36	62,98
542,56	87,04
542,76	176,13
542,96	69,12
543,16	116,73
543,36	120,83
543,55	126,46
543,75	136,19
543,95	48,13
544,15	81,41
544,35	112,13
544,55	164,86
544,75	16,90
544,95	141,82
545,15	63,49
545,35	205,82
545,54	215,04
545,74	105,98
545,94	95,74
546,14	97,79
546,34	64,00
546,54	204,28
546,74	139,77
546,94	23,04
547,14	98,30
547,33	116,22
547,53	30,72
547,73	60,42
547,93	168,45
548,13	87,55
548,33	71,68
548,53	91,65
548,72	104,96
548,92	131,07
549,12	116,73
549,32	95,74
549,52	132,61
549,72	196,09
549,92	113,15
550,12	36,86
550,31	120,32
550,51	118,27
550,71	131,58
550,91	98,81
551,11	120,32
551,31	70,65
551,50	119,81
551,70	128,00
551,90	80,38
552,10	46,08
552,30	82,94
552,50	158,21
552,70	40,45
552,89	25,60
553,09	141,82
553,29	103,93
553,49	180,73
553,69	112,64
553,88	53,25
554,08	51,71
554,28	147,97
554,48	136,19
554,68	164,35
554,88	79,87
555,07	124,93
555,27	89,60
555,47	100,35
555,67	22,02
555,87	116,22
556,06	137,21
556,26	98,81
556,46	113,15
556,66	153,09
556,86	126,97
557,06	114,69
557,25	117,76
557,45	-46,08
557,65	78,33
557,85	129,53
558,05	67,07
558,24	69,63
558,44	99,84
558,64	86,53
558,84	97,28
559,03	146,43
559,23	204,80
559,43	117,76
559,63	119,81
559,83	75,26
560,02	110,08
560,22	136,19
560,42	78,33
560,62	148,99
560,82	59,90
561,01	46,08
561,21	93,69
561,41	94,21
561,61	176,64
561,80	121,34
562,00	123,90
562,20	65,02
562,40	117,25
562,59	96,77
562,79	50,18
562,99	146,94
563,19	207,87
563,38	129,53
563,58	167,93
563,78	103,42
563,98	118,78
564,17	36,35
564,37	78,85
564,57	188,41
564,77	122,88
564,96	133,63
565,16	138,24
565,36	158,72
565,56	104,96
565,75	137,73
565,95	124,93
566,15	90,11
566,35	109,05
566,54	105,98
566,74	116,73
566,94	75,26
567,14	149,50
567,33	161,79
567,53	187,90
567,73	133,63
567,92	160,77
568,12	79,36
568,32	108,54
568,52	77,31
568,71	24,06
568,91	18,94
569,11	125,44
569,30	86,53
569,50	158,21
569,70	68,61
569,90	73,21
570,09	157,18
570,29	156,67
570,49	113,15
570,68	82,43
570,88	84,99
571,08	82,43
571,27	158,72
571,47	139,26
571,67	211,96
571,87	61,44
572,06	104,96
572,26	51,20
572,46	139,26
572,65	25,60
572,85	87,55
573,05	39,94
573,24	103,42
573,44	73,21
573,64	111,10
573,83	181,25
574,03	90,11
574,23	94,21
574,42	48,13
574,62	113,66
574,82	41,98
575,01	53,76
575,21	87,04
575,41	99,33
575,60	34,30
575,80	86,01
576,00	139,77
576,19	62,46
576,39	22,02
576,59	93,69
576,78	99,84
576,98	150,01
577,18	86,01
577,37	115,20
577,57	109,05
577,77	86,53
577,96	88,57
578,16	139,77
578,35	35,33
578,55	126,97
578,75	64,00
578,94	45,06
579,14	187,90
579,34	191,49
579,53	82,94
579,73	96,77
579,93	111,61
580,12	22,53
580,32	25,60
580,51	35,84
580,71	96,77
580,91	129,02
581,10	141,31
581,30	63,49
581,50	121,34
581,69	12,29
581,89	33,28
582,08	47,62
582,28	115,20
582,48	123,90
582,67	56,32
582,87	23,55
583,06	69,12
583,26	196,61
583,46	94,21
583,65	67,07
583,85	48,64
584,04	104,45
584,24	83,45
584,44	5,63
584,63	66,05
584,83	101,37
585,02	71,17
585,22	110,59
585,42	94,21
585,61	46,08
585,81	85,50
586,00	101,89
586,20	173,57
586,39	124,41
586,59	102,40
586,79	173,57
586,98	167,93
587,18	74,24
587,37	95,23
587,57	169,47
587,76	38,40
587,96	86,01
588,16	103,42
588,35	72,19
588,55	11,26
588,74	102,91
588,94	49,15
589,13	158,72
589,33	101,89
589,52	48,64
589,72	137,73
589,92	96,25
590,11	134,14
590,31	112,13
590,50	184,32
590,70	88,06
590,89	-2,56
591,09	67,07
591,28	118,78
591,48	91,13
591,67	134,65
591,87	82,94
592,06	90,62
592,26	47,62
592,46	102,40
592,65	142,85
592,85	83,97
593,04	57,86
593,24	81,41
593,43	112,64
593,63	37,38
593,82	93,18
594,02	82,94
594,21	135,68
594,41	134,14
594,60	67,58
594,80	48,13
594,99	80,89
595,19	117,76
595,38	104,45
595,58	93,69
595,77	152,57
595,97	99,33
596,16	57,86
596,36	56,32
596,55	45,57
596,75	105,98
596,94	-27,65
597,14	22,02
597,33	77,31
597,53	79,87
597,72	107,01
597,92	38,91
598,11	122,88
598,31	87,04
598,50	142,85
598,70	106,49
598,89	32,26
599,09	108,03
599,28	61,44
599,48	54,78
599,67	164,86
599,87	184,83
600,06	114,69
600,26	27,14
600,45	92,67
600,64	28,16
600,84	94,21
601,03	77,31
601,23	80,89
601,42	34,82
601,62	191,49
601,81	54,27
602,01	86,53
602,20	86,53
602,40	111,10
602,59	32,26
602,78	82,94
602,98	134,65
603,17	56,83
603,37	121,34
603,56	241,15
603,76	104,96
603,95	93,69
604,15	72,19
604,34	68,09
604,53	-5,12
604,73	121,85
604,92	31,23
605,12	163,33
605,31	59,90
605,51	84,48
605,70	94,72
605,89	115,20
606,09	44,54
606,28	9,73
606,48	160,77
606,67	91,13
606,87	67,07
607,06	20,48
607,25	71,68
607,45	146,43
607,64	29,70
607,84	89,60
608,03	179,71
608,22	79,36
608,42	62,46
608,61	46,59
608,81	117,76
609,00	94,72
609,19	106,49
609,39	71,68
609,58	97,28
609,78	173,57
609,97	116,22
610,16	92,16
610,36	97,28
610,55	28,16
610,75	58,88
610,94	70,65
611,13	-24,06
611,33	87,55
611,52	31,74
611,71	111,10
611,91	140,29
612,10	88,57
612,30	146,94
612,49	55,30
612,68	17,92
612,88	40,45
613,07	97,28
613,26	74,75
613,46	97,28
613,65	46,08
613,84	179,71
614,04	92,16
614,23	82,43
614,43	141,31
614,62	127,49
614,81	99,84
615,01	82,94
615,20	93,69
615,39	68,09
615,59	107,52
615,78	-9,22
615,97	161,28
616,17	119,29
616,36	75,77
616,55	129,02
616,75	9,22
616,94	51,20
617,13	86,53
617,33	95,74
617,52	153,09
617,71	99,84
617,91	82,43
618,10	180,73
618,29	58,88
618,49	95,23
618,68	143,36
618,87	90,11
619,07	112,13
619,26	43,52
619,45	136,19
619,65	142,85
619,84	117,25
620,03	50,69
620,22	26,62
620,42	73,21
620,61	74,75
620,80	40,45
621,00	147,45
621,19	107,01
621,38	77,82
621,58	-54,27
621,77	73,21
621,96	86,53
622,15	97,28
622,35	107,52
622,54	66,05
622,73	29,70
622,93	58,88
623,12	46,59
623,31	90,11
623,50	76,80
623,70	104,96
623,89	72,70
624,08	72,19
624,28	31,23
624,47	-11,26
624,66	27,65
624,85	65,02
625,05	33,28
625,24	37,89
625,43	60,42
625,62	101,89
625,82	122,88
626,01	-1,54
626,20	49,15
626,39	141,82
626,59	125,95
626,78	79,36
626,97	157,69
627,17	56,83
627,36	71,68
627,55	36,86
627,74	60,42
627,93	124,41
628,13	85,50
628,32	62,46
628,51	96,77
628,70	-16,90
628,90	43,01
629,09	12,80
629,28	78,85
629,47	143,87
629,67	36,35
629,86	71,17
630,05	157,18
630,24	110,59
630,44	26,11
630,63	93,18
630,82	72,19
631,01	77,31
631,20	153,60
631,40	87,55
631,59	69,63
631,78	111,61
631,97	47,10
632,16	135,17
632,36	86,01
632,55	59,90
632,74	69,12
632,93	60,42
633,13	36,86
633,32	128,51
633,51	126,46
633,70	128,00
633,89	50,18
634,09	68,61
634,28	47,62
634,47	136,70
634,66	22,53
634,85	83,45
635,04	93,69
635,24	58,88
635,43	52,74
635,62	31,23
635,81	50,18
636,00	105,98
636,20	124,41
636,39	18,43
636,58	83,97
636,77	84,99
636,96	8,70
637,15	26,62
637,35	44,03
637,54	99,84
637,73	119,29
637,92	104,96
638,11	81,41
638,30	61,95
638,50	69,63
638,69	68,09
638,88	85,50
639,07	74,24
639,26	72,70
639,45	119,81
639,64	61,44
639,84	0,00
640,03	57,34
640,22	34,82
640,41	175,61
640,60	65,54
640,79	84,48
640,98	103,42
641,18	86,01
641,37	67,07
641,56	78,85
641,75	66,05
641,94	86,53
642,13	70,65
642,32	45,06
642,52	90,11
642,71	36,35
642,90	87,04
643,09	4,10
643,28	102,40
643,47	47,62
643,66	90,11
643,85	19,46
644,04	78,33
644,24	53,76
644,43	46,59
644,62	-7,17
644,81	24,58
645,00	84,48
645,19	78,33
645,38	76,80
645,57	90,62
645,76	-2,05
645,96	73,21
646,15	57,86
646,34	28,67
646,53	28,67
646,72	82,94
646,91	90,62
647,10	67,58
647,29	135,68
647,48	81,92
647,67	108,54
647,86	136,70
648,05	21,50
648,25	87,04
648,44	67,07
648,63	144,89
648,82	142,85
649,01	22,02
649,20	60,42
649,39	111,10
649,58	119,29
649,77	51,20
649,96	64,51
650,15	90,11
650,34	34,30
650,53	110,59
650,72	166,91
650,91	33,28
651,11	140,29
651,30	174,08
651,49	12,29
651,68	72,70
651,87	38,91
652,06	77,31
652,25	65,02
652,44	107,01
652,63	-0,51
652,82	105,47
653,01	90,62
653,20	51,20
653,39	85,50
653,58	56,83
653,77	80,38
653,96	24,06
654,15	138,75
654,34	59,90
654,53	1,02
654,72	98,81
654,91	93,18
655,10	88,06
655,29	51,71
655,48	135,68
655,67	99,33
655,86	75,26
656,05	90,11
656,24	-24,58
656,43	115,71
656,62	58,37
656,81	91,65
657,00	102,91
657,19	131,58
657,38	48,64
657,57	68,61
657,76	128,51
657,95	67,07
658,14	92,16
658,33	47,10
658,52	29,70
658,71	93,69
658,90	31,74
659,09	59,39
659,28	8,70
659,47	12,80
659,66	11,26
659,85	64,00
660,04	62,98
660,23	150,01
660,42	52,22
660,61	65,02
660,80	87,04
660,99	59,39
661,18	87,55
661,37	36,86
661,56	84,99
661,75	107,01
661,94	66,05
662,13	66,05
662,32	52,22
662,51	45,57
662,70	168,45
662,89	-8,19
663,08	104,96
663,27	121,34
663,46	-11,26
663,65	92,67
663,83	116,22
664,02	52,74
664,21	70,14
664,40	41,47
664,59	72,19
664,78	37,89
664,97	88,57
665,16	-51,71
665,35	134,65
665,54	122,37
665,73	108,54
665,92	80,89
666,11	3,58
666,30	84,48
666,49	97,79
666,67	45,06
666,86	131,58
667,05	79,87
667,24	87,04
667,43	-2,05
667,62	68,09
667,81	-3,07
668,00	25,09
668,19	50,69
668,38	107,52
668,57	84,99
668,76	88,06
668,94	-11,26
669,13	107,01
669,32	96,25
669,51	62,46
669,70	137,21
669,89	27,14
670,08	91,65
670,27	98,81
670,46	82,43
670,64	15,87
670,83	114,69
671,02	7,68
671,21	56,32
671,40	36,35
671,59	79,36
671,78	43,01
671,97	47,10
672,16	12,80
672,34	73,73
672,53	92,16
672,72	53,76
672,91	108,54
673,10	118,27
673,29	109,05
673,48	24,06
673,66	15,87
673,85	124,41
674,04	79,36
674,23	22,53
674,42	55,81
674,61	125,95
674,80	111,61
674,98	24,58
675,17	70,14
675,36	14,85
675,55	81,41
675,74	34,82
675,93	137,21
676,12	22,02
676,30	74,75
676,49	22,02
676,68	72,70
676,87	103,93
677,06	74,75
677,25	90,62
677,43	104,96
677,62	70,65
677,81	92,16
678,00	70,14
678,19	66,05
678,37	104,96
678,56	124,93
678,75	38,91
678,94	71,68
679,13	70,65
679,32	41,98
679,50	82,94
679,69	98,81
679,88	70,14
680,07	95,74
680,26	108,54
680,44	149,50
680,63	38,40
680,82	28,67
681,01	-21,50
681,20	90,11
681,38	106,49
681,57	80,89
681,76	61,95
681,95	57,34
682,14	54,78
682,32	35,33
682,51	35,33
682,70	54,78
682,89	74,24
683,07	69,12
683,26	49,66
683,45	51,20
683,64	122,88
683,83	76,80
684,01	58,37
684,20	59,39
684,39	123,90
684,58	-7,17
684,76	22,53
684,95	49,15
685,14	0,51
685,33	60,42
685,52	98,81
685,70	152,06
685,89	9,73
686,08	120,83
686,27	-58,37
686,45	46,59
686,64	70,65
686,83	101,37
687,02	96,25
687,20	90,11
687,39	63,49
687,58	104,96
687,76	-30,72
687,95	67,07
688,14	110,08
688,33	166,40
688,51	131,58
688,70	33,28
688,89	94,21
689,08	94,72
689,26	93,18
689,45	44,03
689,64	133,63
689,83	46,59
690,01	6,66
690,20	169,98
690,39	114,69
690,57	133,12
690,76	112,13
690,95	145,41
691,14	91,13
691,32	83,45
691,51	88,06
691,70	186,88
691,88	108,54
692,07	109,57
692,26	61,44
692,44	130,05
692,63	100,86
692,82	67,58
693,01	54,27
693,19	55,81
693,38	76,80
693,57	66,05
693,75	80,89
693,94	54,78
694,13	-24,58
694,31	75,26
694,50	19,97
694,69	125,95
694,87	94,21
695,06	53,76
695,25	13,31
695,43	101,89
695,62	22,53
695,81	17,41
695,99	145,92
696,18	55,30
696,37	39,94
696,55	101,89
696,74	76,29
696,93	178,17
697,11	111,10
697,30	73,21
697,49	30,21
697,67	97,28
697,86	60,42
698,05	78,33
698,23	30,72
698,42	125,95
698,61	75,77
698,79	57,34
698,98	92,16
699,17	26,11
699,35	52,22
699,54	131,07
699,72	87,04
699,91	98,81
700,10	105,47
700,28	84,99
700,47	97,28
700,66	-30,21
700,84	153,09
701,03	119,81
701,21	162,81
701,40	29,18
701,59	67,58
701,77	78,33
701,96	189,44
702,15	135,68
702,33	46,08
702,52	76,80
702,70	63,49
702,89	131,07
703,08	44,03
703,26	86,53
703,45	29,18
703,63	148,99
703,82	60,42
704,01	130,56
704,19	144,38
704,38	99,84
704,56	121,34
704,75	113,66
704,94	91,65
705,12	107,01
705,31	143,36
705,49	78,33
705,68	53,25
705,86	135,68
706,05	88,06
706,24	60,42
706,42	114,17
706,61	26,62
706,79	118,27
706,98	54,27
707,17	122,88
707,35	83,97
707,54	11,78
707,72	56,83
707,91	102,40
708,09	73,21
708,28	83,45
708,46	32,77
708,65	141,82
708,84	93,18
709,02	73,73
709,21	130,56
709,39	91,65
709,58	63,49
709,76	-4,61
709,95	90,11
710,13	35,84
710,32	103,42
710,50	85,50
710,69	107,52
710,88	56,83
711,06	59,39
711,25	95,23
711,43	107,01
711,62	87,04
711,80	46,08
711,99	-16,90
712,17	34,30
712,36	176,64
712,54	89,09
712,73	80,89
712,91	105,98
713,10	154,11
713,28	124,93
713,47	93,69
713,65	119,81
713,84	116,22
714,02	116,22
714,21	116,22
714,39	126,46
714,58	45,06
714,76	91,65
714,95	129,02
715,13	89,09
715,32	80,38
715,50	62,46
715,69	193,02
715,87	96,25
716,06	89,09
716,24	47,10
716,43	116,22
716,61	88,57
716,80	110,59
716,98	30,21
717,17	219,13
717,35	165,89
717,54	58,88
717,72	5,63
717,91	38,91
718,09	26,11
718,28	13,31
718,46	98,81
718,65	78,33
718,83	52,22
719,01	84,48
719,20	65,02
719,38	97,28
719,57	132,61
719,75	26,11
719,94	57,34
720,12	95,74
720,31	150,01
720,49	60,93
720,68	104,45
720,86	101,89
721,04	102,91
721,23	85,50
721,41	58,88
721,60	108,03
721,78	100,86
721,97	51,20
722,15	83,97
722,34	136,70
722,52	134,65
722,70	43,52
722,89	73,73
723,07	62,98
723,26	122,37
723,44	39,94
723,63	97,28
723,81	73,21
723,99	102,40
724,18	90,11
724,36	51,71
724,55	138,75
724,73	61,95
724,91	30,21
725,10	136,70
725,28	83,97
725,47	215,04
725,65	95,74
725,83	104,45
726,02	76,80
726,20	163,33
726,39	21,50
726,57	84,48
726,75	-34,82
726,94	43,01
727,12	198,14
727,31	103,93
727,49	49,15
727,67	141,82
727,86	129,02
728,04	31,74
728,23	109,57
728,41	24,58
728,59	81,92
728,78	152,57
728,96	75,77
729,14	113,66
729,33	51,71
729,51	49,66
729,69	123,39
729,88	29,18
730,06	98,30
730,25	124,41
730,43	150,01
730,61	185,34
730,80	99,33
730,98	121,85
731,16	111,61
731,35	98,81
731,53	87,04
731,71	59,39
731,90	67,07
732,08	106,49
732,26	58,88
732,45	34,30
732,63	93,18
732,81	45,06
733,00	99,33
733,18	118,78
733,36	113,15
733,55	129,02
733,73	158,72
733,91	-6,66
734,10	58,88
734,28	71,68
734,46	43,52
734,65	104,96
734,83	86,01
735,01	90,62
735,20	131,07
735,38	31,74
735,56	62,98
735,75	100,35
735,93	14,34
736,11	167,42
736,30	106,49
736,48	50,18
736,66	89,60
736,84	129,02
737,03	97,28
737,21	88,06
737,39	54,78
737,58	197,12
737,76	-3,58
737,94	15,87
738,12	62,46
738,31	132,09
738,49	85,50
738,67	7,68
738,86	111,10
739,04	115,71
739,22	166,91
739,40	97,28
739,59	71,17
739,77	63,49
739,95	105,47
740,14	80,38
740,32	79,36
740,50	119,81
740,68	59,39
740,87	108,03
741,05	183,29
741,23	135,17
741,41	78,85
741,60	142,33
741,78	164,35
741,96	198,65
742,14	19,46
742,33	59,39
742,51	72,19
742,69	110,08
742,87	61,44
743,06	77,31
743,24	6,14
743,42	149,50
743,60	68,61
743,79	48,64
743,97	90,62
744,15	53,25
744,33	61,95
744,52	12,80
744,70	21,50
744,88	108,03
745,06	140,80
745,24	97,79
745,43	128,00
745,61	71,68
745,79	81,41
745,97	186,88
746,16	110,08
746,34	130,56
746,52	135,17
746,70	86,01
746,88	162,30
747,07	73,21
747,25	36,35
747,43	110,59
747,61	94,21
747,79	130,56
747,98	93,69
748,16	110,59
748,34	82,94
748,52	-11,78
748,70	43,52
748,89	157,69
749,07	80,38
749,25	83,97
749,43	71,68
749,61	116,73
749,79	189,95
749,98	162,81
750,16	69,12
750,34	104,96
750,52	118,27
750,70	114,69
750,88	130,56
751,07	186,88
751,25	26,62
751,43	55,30
751,61	5,63
751,79	50,69
751,97	126,46
752,16	68,61
752,34	67,07
752,52	61,44
752,70	147,97
752,88	90,62
753,06	145,92
753,25	38,91
753,43	76,80
753,61	97,28
753,79	-38,40
753,97	72,19
754,15	79,87
754,33	141,31
754,52	180,73
754,70	65,02
754,88	63,49
755,06	91,13
755,24	113,66
755,42	98,81
755,60	107,01
755,78	122,37
755,97	155,13
756,15	87,04
756,33	47,62
756,51	112,64
756,69	71,68
756,87	26,62
757,05	84,99
757,23	11,26
757,41	88,06
757,60	11,26
757,78	73,21
757,96	75,26
758,14	53,25
758,32	23,55
758,50	113,15
758,68	131,58
758,86	126,46
759,04	113,66
759,22	130,05
759,41	53,76
759,59	126,97
759,77	174,59
759,95	-6,14
760,13	99,84
760,31	144,38
760,49	156,67
760,67	45,06
760,85	-26,62
761,03	138,24
761,21	79,87
761,39	108,03
761,57	94,21
761,76	131,07
761,94	145,92
762,12	160,25
762,30	86,53
762,48	112,64
762,66	73,21
762,84	75,26
763,02	100,86
763,20	111,61
763,38	102,40
763,56	43,52
763,74	95,74
763,92	70,14
764,10	184,32
764,28	96,77
764,46	95,74
764,64	175,61
764,82	157,69
765,00	64,00
765,19	20,99
765,37	91,13
765,55	71,68
765,73	14,85
765,91	112,13
766,09	80,38
766,27	99,84
766,45	41,47
766,63	54,27
766,81	106,49
766,99	75,26
767,17	46,59
767,35	92,16
767,53	77,82
767,71	69,12
767,89	67,58
768,07	77,82
768,25	64,51
768,43	78,33
768,61	87,55
768,79	71,68
768,97	99,33
769,15	101,37
769,33	64,00
769,51	75,26
769,69	88,06
769,87	105,98
770,05	121,34
770,23	139,77
770,41	113,15
770,59	68,61
770,77	76,80
770,95	107,52
771,13	63,49
771,31	47,10
771,49	56,83
771,67	60,42
771,85	135,17
772,03	128,00
772,21	65,53
772,38	87,55
772,56	110,59
772,74	125,95
772,92	70,14
773,10	116,73
773,28	124,41
773,46	19,97
773,64	109,57
773,82	68,09
774,00	90,62
774,18	179,71
774,36	69,12
774,54	53,25
774,72	77,82
774,90	-20,99
775,08	50,69
775,26	168,45
775,44	87,55
775,62	83,45
775,80	92,16
775,97	81,41
776,15	133,12
776,33	142,85
776,51	96,25
776,69	133,12
776,87	137,73
777,05	185,85
777,23	148,99
777,41	2,56
777,59	-0,00
777,77	39,42
777,95	77,31
778,13	57,34
778,30	121,85
778,48	162,81
778,66	186,37
778,84	76,80
779,02	74,75
779,20	82,43
779,38	171,01
779,56	116,73
779,74	49,15
779,92	40,45
780,09	92,16
780,27	119,81
780,45	-13,31
780,63	155,65
780,81	76,80
780,99	125,44
781,17	150,53
781,35	95,74
781,52	117,25
781,70	84,99
781,88	122,37
782,06	177,66
782,24	130,05
782,42	140,80
782,60	76,29
782,78	94,21
782,95	150,53
783,13	89,60
783,31	91,13
783,49	89,60
783,67	89,09
783,85	122,37
784,03	66,56
784,20	14,85
784,38	113,15
784,56	80,89
784,74	86,53
784,92	44,03
785,10	86,53
785,28	126,97
785,45	154,11
785,63	148,48
785,81	55,81
785,99	95,74
786,17	152,57
786,35	61,44
786,52	73,21
786,70	107,01
786,88	42,50
787,06	84,99
787,24	155,65
787,41	126,46
787,59	83,97
787,77	83,45
787,95	9,73
788,13	54,78
788,31	53,25
788,48	106,49
788,66	71,68
788,84	59,39
789,02	91,65
789,20	84,48
789,37	35,84
789,55	198,14
789,73	65,53
789,91	126,46
790,09	103,42
790,26	41,98
790,44	72,70
790,62	57,86
790,80	144,89
790,98	114,17
791,15	143,36
791,33	135,68
791,51	114,69
791,69	54,78
791,86	143,36
792,04	108,54
792,22	68,09
792,40	51,20
792,58	97,79
792,75	104,45
792,93	174,08
793,11	72,19
793,29	87,55
793,46	103,42
793,64	122,37
793,82	89,09
794,00	44,54
794,17	185,85
794,35	52,22
794,53	122,88
794,71	97,28
794,88	66,05
795,06	36,86
795,24	143,87
795,42	92,16
795,59	36,86
795,77	151,04
795,95	59,39
796,13	99,33
796,30	83,45
796,48	152,06
796,66	178,17
796,83	165,89
797,01	80,38
797,19	15,87
797,37	148,48
797,54	91,65
797,72	67,58
797,90	143,36
798,08	15,36
798,25	47,62
798,43	128,51
798,61	84,99
798,78	98,30
798,96	109,57
799,14	56,83
799,31	111,10
799,49	74,24
799,67	98,81
799,85	174,08
800,02	134,14
800,20	-20,99
800,38	28,16
800,55	93,69
800,73	68,09
800,91	84,99
801,08	108,54
801,26	140,80
801,44	116,73
801,61	138,75
801,79	119,29
801,97	75,26
802,15	53,76
802,32	18,43
802,50	66,56
802,68	79,87
802,85	140,80
803,03	132,61
803,21	103,42
803,38	155,13
803,56	108,54
803,74	31,74
803,91	71,68
804,09	86,53
804,26	117,25
804,44	143,36
804,62	133,12
804,79	138,75
804,97	74,75
805,15	114,17
805,32	51,71
805,50	123,39
805,68	116,22
805,85	60,42
806,03	69,12
806,21	136,70
806,38	12,80
806,56	96,77
806,73	122,88
806,91	127,49
807,09	98,30
807,26	93,69
807,44	152,57
807,62	92,67
807,79	137,73
807,97	98,81
808,14	105,47
808,32	192,51
808,50	88,06
808,67	75,26
808,85	113,15
809,02	202,75
809,20	66,05
809,38	86,01
809,55	10,75
809,73	117,25
809,90	128,00
810,08	197,12
810,26	124,41
810,43	145,92
810,61	141,31
810,78	114,17
810,96	86,01
811,14	67,58
811,31	37,89
811,49	23,04
811,66	48,64
811,84	24,06
812,02	88,06
812,19	152,06
812,37	74,24
812,54	176,64
812,72	177,66
812,89	167,93
813,07	128,00
813,25	185,85
813,42	115,71
813,60	141,82
813,77	217,08
813,95	137,21
814,12	38,91
814,30	94,21
814,47	130,05
814,65	118,78
814,83	76,29
815,00	121,34
815,18	141,31
815,35	44,03
815,53	215,04
815,70	115,71
815,88	120,32
816,05	153,60
816,23	69,12
816,40	105,98
816,58	88,06
816,75	69,12
816,93	149,50
817,10	161,28
817,28	86,53
817,46	68,09
817,63	80,89
817,81	122,88
817,98	30,72
818,16	101,37
818,33	83,45
818,51	74,75
818,68	107,52
818,86	173,05
819,03	160,77
819,21	89,09
819,38	93,18
819,56	53,76
819,73	57,86
819,91	144,89
820,08	104,96
820,26	57,34
820,43	203,77
820,61	74,75
820,78	15,36
820,96	35,84
821,13	107,52
821,31	120,32
821,48	59,39
821,66	125,95
821,83	141,31
822,00	15,87
822,18	74,75
822,35	101,89
822,53	146,43
822,70	126,46
822,88	162,81
823,05	91,13
823,23	107,52
823,40	16,90
823,58	127,49
823,75	44,03
823,93	86,01
824,10	27,65
824,28	83,45
824,45	116,73
824,62	38,40
824,80	113,66
824,97	150,01
825,15	97,79
825,32	103,42
825,50	108,03
825,67	75,26
825,85	145,92
826,02	39,42
826,19	108,03
826,37	158,21
826,54	104,96
826,72	57,34
826,89	82,43
827,07	48,64
827,24	108,54
827,41	137,21
827,59	90,11
827,76	78,85
827,94	54,27
828,11	224,76
828,28	89,60
828,46	107,01
828,63	102,91
828,81	60,93
828,98	97,79
829,15	176,64
829,33	89,09
829,50	99,33
829,68	61,95
829,85	103,93
830,02	151,55
830,20	107,01
830,37	99,33
830,55	156,67
830,72	140,29
830,89	73,73
831,07	35,33
831,24	166,40
831,42	113,66
831,59	61,44
831,76	100,35
831,94	111,61
832,11	131,58
832,28	153,09
832,46	76,80
832,63	71,17
832,81	124,41
832,98	126,97
833,15	107,01
833,33	109,57
833,50	89,09
833,67	130,05
833,85	109,05
834,02	102,91
834,19	51,20
834,37	125,44
834,54	134,14
834,71	64,00
834,89	109,57
835,06	59,90
835,23	91,65
835,41	87,55
835,58	178,69
835,75	59,39
835,93	62,46
836,10	64,51
836,27	107,52
836,45	220,67
836,62	87,04
836,79	113,66
836,97	130,05
837,14	141,82
837,31	123,39
837,49	120,32
837,66	45,57
837,83	95,23
838,01	96,25
838,18	140,80
838,35	74,24
838,53	134,14
838,70	65,54
838,87	119,81
839,04	82,43
839,22	209,92
839,39	47,62
839,56	97,28
839,74	137,73
839,91	58,88
840,08	88,06
840,26	127,49
840,43	71,68
840,60	71,68
840,77	129,02
840,95	195,58
841,12	53,25
841,29	131,07
841,46	145,41
841,64	109,57
841,81	150,53
841,98	26,62
842,16	81,92
842,33	137,73
842,50	118,27
842,67	4,61
842,85	95,74
843,02	176,13
843,19	109,57
843,36	89,60
843,54	108,03
843,71	105,47
843,88	80,89
844,05	14,85
844,23	119,29
844,40	73,21
844,57	93,18
844,74	124,41
844,92	144,38
845,09	64,00
845,26	122,88
845,43	44,54
845,61	79,87
845,78	182,78
845,95	105,47
846,12	165,37
846,29	98,81
846,47	163,84
846,64	93,69
846,81	49,66
846,98	39,42
847,16	61,95
847,33	116,73
847,50	34,30
847,67	75,26
847,84	135,17
848,02	92,67
848,19	70,65
848,36	82,43
848,53	61,95
848,70	78,85
848,88	78,85
849,05	145,41
849,22	107,01
849,39	91,13
849,56	20,99
849,74	95,23
849,91	147,97
850,08	99,84
850,25	74,75
850,42	153,60
850,60	163,33
850,77	136,19
850,94	140,80
851,11	164,86
851,28	82,43
851,45	109,05
851,63	163,84
851,80	142,33
851,97	65,53
852,14	197,12
852,31	117,25
852,48	90,11
852,66	74,24
852,83	143,87
853,00	121,85
853,17	127,49
853,34	115,71
853,51	110,08
853,68	132,61
853,86	85,50
854,03	116,73
854,20	54,78
854,37	61,44
854,54	210,43
854,71	112,13
854,88	118,78
855,06	122,88
855,23	159,23
855,40	100,86
855,57	35,84
855,74	113,15
855,91	130,05
856,08	87,55
856,25	130,56
856,43	64,51
856,60	40,45
856,77	130,05
856,94	66,56
857,11	110,08
857,28	133,12
857,45	169,47
857,62	59,90
857,79	116,22
857,97	113,66
858,14	90,62
858,31	169,47
858,48	128,00
858,65	108,03
858,82	25,09
858,99	70,65
859,16	34,30
859,33	48,13
859,50	91,13
859,67	47,10
859,85	61,44
860,02	17,92
860,19	83,45
860,36	99,33
860,53	174,59
860,70	130,05
860,87	110,59
861,04	173,05
861,21	144,89
861,38	205,31
861,55	101,89
861,72	154,11
861,89	102,40
862,06	109,05
862,23	123,90
862,41	96,25
862,58	119,29
862,75	133,63
862,92	148,99
863,09	72,19
863,26	73,21
863,43	115,71
863,60	139,26
863,77	106,49
863,94	72,70
864,11	154,11
864,28	82,43
864,45	25,60
864,62	185,34
864,79	187,90
864,96	115,20
865,13	193,02
865,30	61,44
865,47	172,03
865,64	-19,46
865,81	91,65
865,98	229,88
866,15	80,38
866,32	176,64
866,49	175,10
866,66	153,09
866,83	133,12
867,00	87,04
867,17	150,53
867,34	8,19
867,51	174,59
867,68	39,94
867,85	192,00
868,02	138,24
868,19	91,13
868,36	141,31
868,53	120,83
868,70	79,87
868,87	64,51
869,04	212,48
869,21	128,00
869,38	87,04
869,55	81,41
869,72	137,73
869,89	75,77
870,06	110,08
870,23	96,25
870,40	114,17
870,57	118,78
870,74	45,06
870,91	122,88
871,08	23,55
871,25	113,66
871,42	130,05
871,59	151,04
871,76	52,22
871,93	24,58
872,10	34,82
872,27	192,00
872,44	85,50
872,60	84,48
872,77	154,62
872,94	57,86
873,11	103,93
873,28	137,73
873,45	102,40
873,62	172,03
873,79	70,65
873,96	34,82
874,13	143,87
874,30	-15,36
874,47	144,89
874,64	167,93
874,81	50,18
874,97	108,03
875,14	128,00
875,31	44,03
875,48	83,97
875,65	144,89
875,82	112,64
875,99	148,48
876,16	178,17
876,33	162,81
876,50	122,88
876,67	88,06
876,83	76,80
877,00	56,83
877,17	181,76
877,34	6,66
877,51	111,61
877,68	99,84
877,85	18,94
878,02	81,41
878,19	105,98
878,35	99,84
878,52	121,34
878,69	98,81
878,86	72,19
879,03	83,97
879,20	127,49
879,37	139,77
879,54	91,65
879,70	159,23
879,87	85,50
880,04	137,21
880,21	83,97
880,38	104,96
880,55	108,54
880,72	131,58
880,89	123,39
881,05	138,75
881,22	103,93
881,39	67,58
881,56	139,26
881,73	64,51
881,90	133,12
882,06	129,53
882,23	47,62
882,40	51,20
882,57	101,37
882,74	125,95
882,91	176,64
883,07	34,82
883,24	157,18
883,41	82,43
883,58	75,26
883,75	118,27
883,92	40,45
884,08	97,79
884,25	94,21
884,42	85,50
884,59	120,83
884,76	120,32
884,92	75,77
885,09	135,17
885,26	92,67
885,43	117,76
885,60	105,98
885,76	117,76
885,93	65,54
886,10	158,21
886,27	124,41
886,44	114,69
886,60	224,76
886,77	139,26
886,94	70,14
887,11	100,86
887,28	95,74
887,44	144,89
887,61	80,89
887,78	91,65
887,95	74,24
888,12	174,59
888,28	74,24
888,45	112,13
888,62	140,29
888,79	79,87
888,95	40,45
889,12	103,93
889,29	181,76
889,46	55,30
889,62	145,41
889,79	161,28
889,96	117,25
890,13	139,77
890,29	111,10
890,46	114,69
890,63	118,27
890,80	119,29
890,96	97,28
891,13	97,28
891,30	83,97
891,47	21,50
891,63	219,64
891,80	134,14
891,97	135,68
892,14	114,69
892,30	122,37
892,47	211,45
892,64	78,85
892,80	124,93
892,97	62,46
893,14	109,57
893,31	152,57
893,47	78,85
893,64	114,17
893,81	164,35
893,97	160,77
894,14	158,72
>>>>>End Processed Spectral Data<<<<<
