SpectraSuite Datei
++++++++++++++++++++++++++++++++++++
Datum: Wed Dec 06 16:18:27 CET 2017
Benutzer: Praktikum-Pc1
Dark-Spektrum vorhanden: Ja
Referenz-Spektrum vorhanden: Ja
Zahl der probierten Teilspektren: 1
Spektrometer: USB4H10187
Integrationszeit (usec): 100000 (USB4H10187)
Spektren Durchschnitt berechnet: 3 (USB4H10187)
Boxcar Glättung: 0 (USB4H10187)
Dunkelstromkorrektur: Nein (USB4H10187)
Puls/Lampe aktiviert: Nein (USB4H10187)
Correct for Detector Non-linearity: Nein (USB4H10187)
Streulichtkorrektur: Nein (USB4H10187)
Anzahl Pixel in verarbeitetem Spektrum: 3648
>>>>>Begin Processed Spectral Data<<<<<
176,80	-49,15
177,02	-49,15
177,24	-49,15
177,46	0,68
177,68	-29,35
177,91	-45,74
178,13	-45,06
178,35	-117,42
178,57	-15,70
178,79	-57,34
179,02	-59,39
179,24	-43,69
179,46	-38,23
179,68	-73,04
179,90	-23,21
180,12	-107,86
180,35	-55,30
180,57	-72,36
180,79	-99,67
181,01	2,73
181,23	-8,19
181,46	-43,69
181,68	-11,61
181,90	-47,10
182,12	-36,18
182,34	-58,71
182,56	-2,73
182,79	-66,22
183,01	-34,82
183,23	-26,62
183,45	-56,66
183,67	25,26
183,89	-40,96
184,12	-40,96
184,34	-42,32
184,56	-4,10
184,78	-48,47
185,00	-42,32
185,22	-92,84
185,45	-32,77
185,67	-31,40
185,89	-30,04
186,11	-15,02
186,33	-26,62
186,55	-109,91
186,77	-52,56
187,00	-56,66
187,22	-51,88
187,44	-102,40
187,66	-37,55
187,88	-32,77
188,10	-49,83
188,32	-38,91
188,55	-61,44
188,77	-77,14
188,99	-19,80
189,21	-27,99
189,43	-18,43
189,65	-36,18
189,87	-58,03
190,10	52,56
190,32	-24,58
190,54	-27,99
190,76	-45,06
190,98	-17,75
191,20	-40,96
191,42	-42,32
191,64	-43,69
191,87	-46,42
192,09	-21,85
192,31	-17,07
192,53	-53,25
192,75	-53,25
192,97	14,34
193,19	-47,79
193,41	-88,75
193,64	-39,59
193,86	-38,23
194,08	-47,79
194,30	-56,66
194,52	-19,11
194,74	-69,63
194,96	-2,73
195,18	-45,74
195,40	-1,37
195,63	-46,42
195,85	-29,35
196,07	-69,63
196,29	-40,28
196,51	-26,62
196,73	-25,94
196,95	-45,06
197,17	-43,69
197,39	-53,93
197,61	-52,56
197,84	-49,83
198,06	-20,48
198,28	-68,95
198,50	-51,88
198,72	16,38
198,94	-40,96
199,16	-70,31
199,38	-38,23
199,60	-39,59
199,82	-53,93
200,04	-15,70
200,26	-21,16
200,49	-52,56
200,71	-19,11
200,93	-104,45
201,15	-6,83
201,37	-2,05
201,59	-63,49
201,81	-19,11
202,03	-78,51
202,25	-79,19
202,47	-29,35
202,69	-37,55
202,91	-71,00
203,13	-72,36
203,35	-90,11
203,58	-49,15
203,80	-16,38
204,02	-38,23
204,24	-6,83
204,46	-62,12
204,68	-33,45
204,90	-72,36
205,12	-10,24
205,34	-75,77
205,56	-44,37
205,78	-15,70
206,00	-45,06
206,22	3,41
206,44	-60,76
206,66	14,34
206,88	-40,96
207,10	9,56
207,32	-38,23
207,54	-30,04
207,76	-91,48
207,99	-68,95
208,21	2,73
208,43	-30,04
208,65	-6,14
208,87	-2,73
209,09	-51,20
209,31	8,87
209,53	-21,16
209,75	-55,98
209,97	-67,58
210,19	-40,28
210,41	-61,44
210,63	-79,19
210,85	-8,87
211,07	-79,19
211,29	-96,25
211,51	-38,23
211,73	-15,70
211,95	-38,23
212,17	-55,98
212,39	-48,47
212,61	-67,58
212,83	-39,59
213,05	2,05
213,27	-50,52
213,49	-55,30
213,71	9,56
213,93	-15,70
214,15	-45,06
214,37	-3,41
214,59	-28,67
214,81	-49,83
215,03	-30,72
215,25	-54,61
215,47	-32,77
215,69	-70,31
215,91	-49,83
216,13	-22,53
216,35	-68,95
216,57	-21,16
216,79	17,07
217,01	-28,67
217,23	-6,83
217,45	-69,63
217,67	-3,41
217,89	-9,56
218,11	-30,04
218,33	-0,68
218,55	-39,59
218,77	-46,42
218,99	-2,73
219,21	-24,58
219,43	-15,70
219,65	6,83
219,87	-35,50
220,09	-47,10
220,31	-39,59
220,53	-20,48
220,75	-71,68
220,97	-119,46
221,19	-30,04
221,41	-58,03
221,63	-51,88
221,85	-17,07
222,06	-43,69
222,28	-58,03
222,50	-65,54
222,72	-29,35
222,94	-17,75
223,16	-27,99
223,38	-25,26
223,60	-19,11
223,82	-107,18
224,04	-49,15
224,26	14,34
224,48	-27,31
224,70	-34,13
224,92	-70,31
225,14	-85,33
225,36	-21,84
225,58	2,73
225,80	-70,31
226,02	-37,55
226,24	-99,67
226,45	-109,23
226,67	-44,37
226,89	-27,31
227,11	-48,47
227,33	-21,85
227,55	-17,75
227,77	-16,38
227,99	-47,79
228,21	-66,90
228,43	-3,41
228,65	-55,30
228,87	-14,34
229,09	-0,68
229,31	-0,68
229,52	-36,86
229,74	-13,65
229,96	-86,70
230,18	-1,37
230,40	-68,95
230,62	-83,28
230,84	-10,24
231,06	-9,56
231,28	-19,11
231,50	-91,48
231,72	-81,24
231,94	-60,07
232,15	-60,76
232,37	-93,52
232,59	-52,56
232,81	-48,47
233,03	-18,43
233,25	-12,29
233,47	-51,20
233,69	-45,74
233,91	-46,42
234,13	-53,25
234,34	-25,26
234,56	-44,37
234,78	51,20
235,00	-8,19
235,22	-40,28
235,44	-30,04
235,66	25,94
235,88	-30,72
236,10	-53,25
236,31	-58,03
236,53	-61,44
236,75	10,92
236,97	-81,24
237,19	-8,87
237,41	-0,68
237,63	-62,80
237,85	-53,25
238,07	-12,29
238,28	-12,29
238,50	-71,00
238,72	-35,50
238,94	-83,28
239,16	-29,35
239,38	-75,77
239,60	-49,83
239,81	-23,89
240,03	-17,07
240,25	-55,30
240,47	-53,93
240,69	-34,13
240,91	-8,19
241,13	-14,34
241,34	-103,08
241,56	-81,92
241,78	-21,16
242,00	-42,32
242,22	-32,77
242,44	-34,13
242,66	-15,70
242,87	-38,91
243,09	-53,93
243,31	-41,64
243,53	-43,69
243,75	-28,67
243,97	-17,75
244,19	-2,05
244,40	-30,04
244,62	-38,23
244,84	-55,30
245,06	-34,82
245,28	-71,00
245,50	-2,05
245,71	-56,66
245,93	-21,85
246,15	-58,71
246,37	-39,59
246,59	-25,26
246,81	-35,50
247,02	-15,02
247,24	-47,10
247,46	34,82
247,68	-100,35
247,90	-51,20
248,11	-18,43
248,33	-19,80
248,55	-19,80
248,77	23,89
248,99	6,83
249,21	-58,71
249,42	-50,52
249,64	-2,73
249,86	-17,07
250,08	-30,04
250,30	2,05
250,51	-17,07
250,73	-29,35
250,95	-66,22
251,17	-52,56
251,39	-54,61
251,60	-8,19
251,82	-4,10
252,04	-20,48
252,26	-49,15
252,48	-55,30
252,69	-34,13
252,91	-43,69
253,13	-32,08
253,35	-9,56
253,57	-67,58
253,78	-35,50
254,00	-43,01
254,22	-67,58
254,44	-49,83
254,65	15,70
254,87	-14,34
255,09	11,61
255,31	6,14
255,53	-30,72
255,74	-34,82
255,96	-87,38
256,18	-33,45
256,40	-17,75
256,61	-57,34
256,83	-18,43
257,05	-17,07
257,27	-9,56
257,48	-15,70
257,70	-47,10
257,92	19,80
258,14	8,19
258,36	-40,28
258,57	-78,51
258,79	-42,32
259,01	-21,16
259,23	-47,79
259,44	-40,28
259,66	-10,24
259,88	3,41
260,10	-61,44
260,31	-36,86
260,53	-0,68
260,75	-33,45
260,97	19,11
261,18	-21,16
261,40	-49,83
261,62	-64,17
261,84	-60,76
262,05	-64,85
262,27	22,53
262,49	-82,60
262,71	-60,76
262,92	-18,43
263,14	-81,24
263,36	19,11
263,57	-34,82
263,79	-31,40
264,01	-25,94
264,23	-40,28
264,44	-39,59
264,66	-6,83
264,88	7,51
265,10	-23,21
265,31	-107,18
265,53	-90,79
265,75	-10,24
265,96	-58,71
266,18	-32,77
266,40	-79,19
266,62	-59,39
266,83	13,65
267,05	-71,68
267,27	-65,53
267,48	15,70
267,70	-51,88
267,92	-44,37
268,14	-68,95
268,35	-30,72
268,57	-37,55
268,79	-43,01
269,00	-21,85
269,22	-24,58
269,44	-33,45
269,65	-30,04
269,87	-19,80
270,09	-25,94
270,31	-24,58
270,52	-65,53
270,74	-45,06
270,96	-29,35
271,17	-38,23
271,39	20,48
271,61	-35,50
271,82	-47,79
272,04	-44,37
272,26	6,83
272,47	5,46
272,69	-7,51
272,91	-101,72
273,12	-43,01
273,34	50,52
273,56	-34,82
273,77	-33,45
273,99	-20,48
274,21	21,16
274,42	-36,86
274,64	-40,28
274,86	4,10
275,08	-53,93
275,29	-28,67
275,51	-58,71
275,72	4,78
275,94	-94,21
276,16	-16,38
276,37	-42,32
276,59	11,61
276,81	-49,83
277,02	-10,92
277,24	-65,53
277,46	-22,53
277,67	-19,80
277,89	-38,91
278,11	35,50
278,32	-77,82
278,54	-19,80
278,76	-96,94
278,97	3,41
279,19	-37,55
279,41	-39,59
279,62	-69,63
279,84	-66,22
280,05	-45,74
280,27	-40,96
280,49	-19,11
280,70	-17,75
280,92	-76,46
281,14	2,73
281,35	-2,73
281,57	-38,91
281,79	-12,97
282,00	-55,98
282,22	-58,71
282,43	-60,76
282,65	-66,90
282,87	18,43
283,08	-57,34
283,30	-19,80
283,52	-18,43
283,73	2,05
283,95	-60,76
284,16	-22,53
284,38	-11,61
284,60	19,80
284,81	21,84
285,03	-17,07
285,24	-32,08
285,46	-8,19
285,68	-1,37
285,89	-72,36
286,11	-51,88
286,32	50,52
286,54	-45,74
286,76	15,70
286,97	-19,11
287,19	-16,38
287,40	-58,03
287,62	34,13
287,84	-43,01
288,05	-58,71
288,27	6,83
288,48	-34,82
288,70	-40,28
288,92	-3,41
289,13	-19,11
289,35	-53,93
289,56	-45,74
289,78	-34,82
289,99	-12,97
290,21	28,67
290,43	-44,37
290,64	-49,83
290,86	-79,87
291,07	-49,83
291,29	-33,45
291,51	3,41
291,72	-3,41
291,94	-8,87
292,15	-43,69
292,37	-85,33
292,58	0,00
292,80	-25,94
293,01	-21,16
293,23	-25,26
293,45	-7,51
293,66	-48,47
293,88	3,41
294,09	19,80
294,31	-50,52
294,52	-38,23
294,74	-41,64
294,96	-66,22
295,17	-7,51
295,39	-52,56
295,60	-15,70
295,82	-25,94
296,03	7,51
296,25	1,37
296,46	-51,20
296,68	-52,56
296,89	-4,78
297,11	-49,15
297,32	-15,70
297,54	-43,69
297,76	-25,94
297,97	-75,09
298,19	-16,38
298,40	-12,29
298,62	-61,44
298,83	-37,55
299,05	-50,52
299,26	-53,93
299,48	-27,31
299,69	-65,53
299,91	-17,07
300,12	-9,56
300,34	-54,61
300,55	13,65
300,77	-42,32
300,98	-48,47
301,20	-40,96
301,41	-40,96
301,63	-68,95
301,84	-19,80
302,06	-31,40
302,28	-33,45
302,49	-18,43
302,71	-50,52
302,92	-12,97
303,14	-23,89
303,35	-49,83
303,57	-89,43
303,78	-47,10
304,00	-0,68
304,21	-33,45
304,43	-15,02
304,64	-35,50
304,86	-41,64
305,07	-96,94
305,29	-47,79
305,50	15,02
305,71	2,73
305,93	-11,61
306,14	-55,30
306,36	-68,27
306,57	10,92
306,79	-5,46
307,00	-68,95
307,22	-27,31
307,43	-23,89
307,65	-57,34
307,86	-35,50
308,08	0,00
308,29	-85,33
308,51	-51,20
308,72	-47,79
308,94	-54,61
309,15	9,56
309,37	-10,24
309,58	4,10
309,80	-51,88
310,01	-76,46
310,22	-44,37
310,44	-88,75
310,65	-76,46
310,87	-51,20
311,08	-53,93
311,30	-39,59
311,51	-45,06
311,73	-26,62
311,94	19,11
312,16	-25,94
312,37	-34,13
312,58	15,02
312,80	2,73
313,01	8,19
313,23	-18,43
313,44	-22,53
313,66	10,92
313,87	-44,37
314,09	-58,71
314,30	-2,73
314,51	-42,32
314,73	9,56
314,94	-33,45
315,16	-18,43
315,37	-20,48
315,59	-51,88
315,80	-10,24
316,01	-54,61
316,23	-18,43
316,44	-47,10
316,66	14,34
316,87	-12,97
317,09	4,78
317,30	-0,00
317,51	-34,82
317,73	28,67
317,94	-1,37
318,16	28,67
318,37	0,00
318,58	7,51
318,80	-27,99
319,01	-12,29
319,23	-61,44
319,44	-20,48
319,66	-21,16
319,87	-8,87
320,08	-43,01
320,30	-43,01
320,51	-52,56
320,73	-36,18
320,94	36,18
321,15	-11,61
321,37	4,10
321,58	-9,56
321,80	16,38
322,01	-8,19
322,22	-27,31
322,44	-40,28
322,65	-0,68
322,86	-37,55
323,08	-34,13
323,29	-26,62
323,51	-77,14
323,72	-64,85
323,93	-49,83
324,15	-15,02
324,36	-55,30
324,58	-4,10
324,79	-36,18
325,00	-38,23
325,22	9,56
325,43	4,10
325,64	-2,05
325,86	12,29
326,07	-21,16
326,28	21,85
326,50	-38,91
326,71	-5,46
326,93	40,28
327,14	2,73
327,35	-2,05
327,57	-75,09
327,78	23,21
327,99	-13,65
328,21	-8,19
328,42	-23,89
328,63	48,47
328,85	19,80
329,06	37,55
329,27	55,30
329,49	34,13
329,70	72,36
329,91	-12,29
330,13	-13,65
330,34	-6,14
330,56	47,10
330,77	49,83
330,98	6,83
331,20	32,08
331,41	10,92
331,62	62,80
331,84	84,65
332,05	13,65
332,26	51,88
332,48	45,74
332,69	62,80
332,90	68,27
333,11	54,61
333,33	53,93
333,54	99,67
333,75	71,00
333,97	22,53
334,18	79,87
334,39	57,34
334,61	77,82
334,82	58,71
335,03	113,32
335,25	116,05
335,46	126,97
335,67	101,72
335,89	124,93
336,10	86,70
336,31	133,12
336,53	94,89
336,74	105,13
336,95	36,18
337,16	130,39
337,38	125,61
337,59	101,03
337,80	169,98
338,02	145,41
338,23	124,24
338,44	161,11
338,65	105,13
338,87	202,07
339,08	172,03
339,29	169,30
339,51	155,65
339,72	237,56
339,93	160,42
340,14	176,81
340,36	225,96
340,57	199,34
340,78	258,73
341,00	215,72
341,21	212,31
341,42	281,94
341,63	309,24
341,85	262,82
342,06	234,83
342,27	322,21
342,49	299,69
342,70	345,42
342,91	287,40
343,12	294,22
343,34	363,86
343,55	367,95
343,76	329,72
343,97	290,13
344,19	279,89
344,40	265,55
344,61	290,13
344,82	296,27
345,04	318,12
345,25	296,27
345,46	335,18
345,67	356,35
345,89	346,11
346,10	442,36
346,31	353,62
346,52	400,72
346,74	406,18
346,95	443,04
347,16	395,94
347,37	404,82
347,59	389,80
347,80	367,95
348,01	385,70
348,22	377,51
348,43	439,63
348,65	412,32
348,86	373,41
349,07	475,81
349,28	428,03
349,50	453,97
349,71	479,22
349,92	473,08
350,13	535,20
350,34	578,21
350,56	578,89
350,77	576,84
350,98	577,53
351,19	595,96
351,41	596,64
351,62	509,26
351,83	542,71
352,04	498,34
352,25	602,10
352,47	581,62
352,68	535,20
352,89	634,87
353,10	636,92
353,31	678,56
353,53	666,96
353,74	658,08
353,95	713,38
354,16	713,38
354,37	712,01
354,59	741,36
354,80	769,35
355,01	731,81
355,22	731,12
355,43	759,11
355,65	740,68
355,86	666,27
356,07	647,16
356,28	692,90
356,49	685,39
356,70	681,29
356,92	649,89
357,13	654,67
357,34	602,79
357,55	604,15
357,76	595,28
357,98	576,16
358,19	611,66
358,40	574,11
358,61	617,12
358,82	600,74
359,03	643,74
359,25	726,35
359,46	779,59
359,67	767,99
359,88	860,83
360,09	849,91
360,30	801,44
360,51	842,40
360,73	819,19
360,94	808,27
361,15	839,67
361,36	696,31
361,57	778,91
361,78	821,92
362,00	787,10
362,21	833,52
362,42	851,27
362,63	890,18
362,84	941,38
363,05	842,40
363,26	1019,21
363,48	891,55
363,69	937,29
363,90	1004,87
364,11	973,47
364,32	999,41
364,53	931,83
364,74	980,98
364,95	1002,14
365,17	1019,21
365,38	1032,18
365,59	1042,42
365,80	1193,97
366,01	1160,52
366,22	1224,69
366,43	1344,15
366,64	1220,59
366,86	1298,41
367,07	1217,86
367,28	1200,11
367,49	1251,99
367,70	1286,81
367,91	1215,13
368,12	1165,98
368,33	1163,25
368,54	1206,94
368,76	1200,79
368,97	1234,24
369,18	1246,53
369,39	1230,83
369,60	1317,53
369,81	1270,42
370,02	1291,59
370,23	1312,75
370,44	1266,33
370,65	1279,30
370,87	1240,39
371,08	1277,25
371,29	1304,56
371,50	1251,99
371,71	1319,57
371,92	1190,55
372,13	1260,18
372,34	1216,49
372,55	1208,30
372,76	1090,20
372,97	1150,96
373,18	1062,21
373,40	1074,50
373,61	1003,50
373,82	1049,93
374,03	983,02
374,24	1022,62
374,45	1039,69
374,66	972,10
374,87	996,00
375,08	1116,14
375,29	1106,59
375,50	1126,38
375,71	1185,09
375,92	1148,91
376,13	1240,39
376,34	1249,26
376,56	1162,56
376,77	1196,01
376,98	1290,90
377,19	1319,57
377,40	1449,96
377,61	1466,35
377,82	1385,79
378,03	1558,50
378,24	1506,62
378,45	1512,77
378,66	1496,38
378,87	1365,31
379,08	1391,94
379,29	1303,19
379,50	1371,46
379,71	1193,97
379,92	1257,45
380,13	1341,42
380,34	1291,59
380,55	1355,07
380,76	1317,53
380,97	1386,47
381,18	1350,98
381,39	1254,72
381,60	1281,35
381,81	1171,44
382,02	1117,51
382,24	1088,15
382,45	994,63
382,66	895,65
382,87	939,33
383,08	897,01
383,29	886,77
383,50	886,09
383,71	886,77
383,92	957,08
384,13	973,47
384,34	1023,30
384,55	1077,91
384,76	1124,33
384,97	1203,52
385,18	1194,65
385,39	1273,15
385,60	1186,46
385,81	1196,70
386,02	1211,71
386,23	1206,25
386,44	1265,64
386,65	1256,77
386,86	1273,84
387,07	1218,54
387,28	1294,32
387,49	1215,81
387,70	1290,22
387,91	1298,41
388,12	1214,45
388,32	1248,58
388,53	1241,75
388,74	1183,73
388,95	1283,39
389,16	1381,01
389,37	1398,08
389,58	1402,86
389,79	1490,92
390,00	1574,21
390,21	1531,20
390,42	1569,43
390,63	1656,81
390,84	1644,52
391,05	1697,08
391,26	1657,49
391,47	1712,10
391,68	1684,11
391,89	1623,36
392,10	1645,88
392,31	1503,21
392,52	1384,43
392,73	1249,26
392,94	1103,86
393,15	994,63
393,36	920,22
393,57	908,62
393,78	933,19
393,98	1004,87
394,19	1122,29
394,40	1145,50
394,61	1259,50
394,82	1420,61
395,03	1467,03
395,24	1611,07
395,45	1598,10
395,66	1662,95
395,87	1574,21
396,08	1538,02
396,29	1411,05
396,50	1265,64
396,71	1129,80
396,92	1092,93
397,12	1153,69
397,33	1135,26
397,54	1246,53
397,75	1394,67
397,96	1521,64
398,17	1645,20
398,38	1821,33
398,59	1885,50
398,80	1974,92
399,01	2105,99
399,22	2154,46
399,43	2183,13
399,63	2158,56
399,84	2227,51
400,05	2260,96
400,26	2138,08
400,47	2320,35
400,68	2262,32
400,89	2310,79
401,10	2315,57
401,31	2333,32
401,52	2336,73
401,72	2399,54
401,93	2353,80
402,14	2400,90
402,35	2345,61
402,56	2398,85
402,77	2334,00
402,98	2400,22
403,19	2377,69
403,40	2326,49
403,60	2280,75
403,81	2270,51
404,02	2332,64
404,23	2321,03
404,44	2341,51
404,65	2332,64
404,86	2293,04
405,07	2303,96
405,27	2292,36
405,48	2348,34
405,69	2232,97
405,90	2230,92
406,11	2280,75
406,32	2323,76
406,53	2238,43
406,74	2257,54
406,94	2250,04
407,15	2312,16
407,36	2217,27
407,57	2265,74
407,78	2340,83
407,99	2327,86
408,20	2339,46
408,40	2449,37
408,61	2488,28
408,82	2463,71
409,03	2451,42
409,24	2455,51
409,45	2444,59
409,65	2432,30
409,86	2411,82
410,07	2359,94
410,28	2309,43
410,49	2297,14
410,70	2238,43
410,90	2402,95
411,11	2451,42
411,32	2446,64
411,53	2452,10
411,74	2576,34
411,95	2609,79
412,15	2598,87
412,36	2564,06
412,57	2566,79
412,78	2619,35
412,99	2555,86
413,20	2501,25
413,40	2555,86
413,61	2552,45
413,82	2678,74
414,03	2517,64
414,24	2571,57
414,44	2514,22
414,65	2562,69
414,86	2613,89
415,07	2478,72
415,28	2519,00
415,48	2564,06
415,69	2576,34
415,90	2611,84
416,11	2635,74
416,32	2611,16
416,53	2632,32
416,73	2609,11
416,94	2600,92
417,15	2652,12
417,36	2523,78
417,56	2521,05
417,77	2514,22
417,98	2590,00
418,19	2492,38
418,40	2570,88
418,60	2538,12
418,81	2492,38
419,02	2466,44
419,23	2581,12
419,44	2465,07
419,64	2463,71
419,85	2430,26
420,06	2383,84
420,27	2471,90
420,47	2541,53
420,68	2506,71
420,89	2618,67
421,10	2650,75
421,30	2666,46
421,51	2648,71
421,72	2628,91
421,93	2622,77
422,14	2495,11
422,34	2546,99
422,55	2458,25
422,76	2439,81
422,97	2475,99
423,17	2409,09
423,38	2451,42
423,59	2375,64
423,80	2413,87
424,00	2439,13
424,21	2394,08
424,42	2415,24
424,63	2473,95
424,83	2435,03
425,04	2479,41
425,25	2447,32
425,46	2506,03
425,66	2465,07
425,87	2473,95
426,08	2372,23
426,28	2509,44
426,49	2472,58
426,70	2510,81
426,91	2430,26
427,11	2452,78
427,32	2308,06
427,53	2398,85
427,74	2412,51
427,94	2452,10
428,15	2365,40
428,36	2409,78
428,56	2460,29
428,77	2469,17
428,98	2305,33
429,19	2285,53
429,39	2222,73
429,60	2237,75
429,81	2168,80
430,01	1995,40
430,22	1930,55
430,43	1868,43
430,64	1886,86
430,84	1855,46
431,05	1962,64
431,26	2024,08
431,46	2126,47
431,67	2196,79
431,88	2483,50
432,08	2422,75
432,29	2547,67
432,50	2568,15
432,70	2613,89
432,91	2574,98
433,12	2645,29
433,33	2562,01
433,53	2597,51
433,74	2595,46
433,95	2480,77
434,15	2452,10
434,36	2517,64
434,57	2467,80
434,77	2530,61
434,98	2531,97
435,19	2523,78
435,39	2686,94
435,60	2685,57
435,81	2779,09
436,01	2684,20
436,22	2874,67
436,43	2852,82
436,63	2919,04
436,84	2942,25
437,05	2859,65
437,25	2794,11
437,46	2828,24
437,67	2764,76
437,87	2666,46
438,08	2643,24
438,29	2670,55
438,49	2634,37
438,70	2559,28
438,91	2650,07
439,11	2664,41
439,32	2696,49
439,52	2627,54
439,73	2653,48
439,94	2667,14
440,14	2768,85
440,35	2770,22
440,56	2753,84
440,76	2755,20
440,97	2908,12
441,18	2850,77
441,38	2878,08
441,59	2934,06
441,79	2936,10
442,00	3033,04
442,21	2940,20
442,41	3050,79
442,62	2928,60
442,83	3052,84
443,03	3003,00
443,24	2987,99
443,44	2998,23
443,65	2972,29
443,86	2948,39
444,06	3005,05
444,27	3081,51
444,48	3085,61
444,68	3013,93
444,89	3111,55
445,09	3066,49
445,30	2921,09
445,51	2929,28
445,71	2917,67
445,92	2897,88
446,12	2942,93
446,33	2940,88
446,54	2906,07
446,74	2996,18
446,95	2916,99
447,15	3113,60
447,36	3061,71
447,57	3069,22
447,77	3127,93
447,98	3106,09
448,18	3029,63
448,39	3050,79
448,59	3090,38
448,80	3143,63
449,01	3144,31
449,21	3093,12
449,42	3112,91
449,62	3250,13
449,83	3162,75
450,04	3142,27
450,24	3329,31
450,45	3302,69
450,65	3355,26
450,86	3300,64
451,06	3269,24
451,27	3356,62
451,47	3285,62
451,68	3237,84
451,89	3271,97
452,09	3296,55
452,30	3066,49
452,50	3084,24
452,71	3154,55
452,91	3111,55
453,12	3033,72
453,33	2986,62
453,53	2949,08
453,74	3050,79
453,94	3153,19
454,15	2970,24
454,35	3089,02
454,56	3126,57
454,76	3177,08
454,97	3064,44
455,17	3037,82
455,38	3198,93
455,58	3193,47
455,79	3099,26
456,00	3169,57
456,20	3218,72
456,41	3195,51
456,61	3133,39
456,82	3181,86
457,02	3248,08
457,23	3235,11
457,43	3276,75
457,64	3134,07
457,84	3181,86
458,05	3165,48
458,25	3127,25
458,46	3089,02
458,66	3082,19
458,87	3063,08
459,07	3250,13
459,28	3044,65
459,48	3051,47
459,69	3156,60
459,89	3063,08
460,10	3141,58
460,30	3262,41
460,51	3170,94
460,71	3151,14
460,92	3241,25
461,12	3130,66
461,33	3420,11
461,53	3200,29
461,74	3314,98
461,94	3289,72
462,15	3325,90
462,35	3393,48
462,56	3267,88
462,76	3226,23
462,97	3302,69
463,17	3233,06
463,38	3273,34
463,58	3246,71
463,79	3404,41
463,99	3369,59
464,20	3334,78
464,40	3278,12
464,61	3306,79
464,81	3311,57
465,02	3255,59
465,22	3308,83
465,43	3467,89
465,63	3342,97
465,83	3390,75
466,04	3401,68
466,24	3394,17
466,45	3362,76
466,65	3334,78
466,86	3390,07
467,06	3377,78
467,27	3366,18
467,47	3480,86
467,68	3416,01
467,88	3371,64
468,08	3415,33
468,29	3519,09
468,49	3542,30
468,70	3602,38
468,90	3562,78
469,11	3555,96
469,31	3719,79
469,52	3584,63
469,72	3824,24
469,92	3596,23
470,13	3649,48
470,33	3657,67
470,54	3494,52
470,74	3540,94
470,95	3635,14
471,15	3687,71
471,35	3675,42
471,56	3731,40
471,76	3884,31
471,97	3929,37
472,17	3968,28
472,38	3946,44
472,58	3964,18
472,78	3974,42
472,99	4032,45
473,19	3977,84
473,40	3977,84
473,60	3927,32
473,80	4020,16
474,01	4035,86
474,21	4170,35
474,42	4068,63
474,62	4199,70
474,83	4108,91
475,03	4204,48
475,23	4132,12
475,44	4270,01
475,64	4233,83
475,85	4264,55
476,05	4201,07
476,25	4282,99
476,46	4243,39
476,66	4205,16
476,86	4224,96
477,07	4313,02
477,27	4416,79
477,48	4419,52
477,68	4472,08
477,88	4465,94
478,09	4496,66
478,29	4601,10
478,50	4585,40
478,70	4641,38
478,90	4529,42
479,11	4629,77
479,31	4677,56
479,51	4703,50
479,72	4736,27
479,92	4734,90
480,12	4785,42
480,33	4816,14
480,53	4732,17
480,74	4815,46
480,94	4840,03
481,14	4861,88
481,35	4954,72
481,55	4978,61
481,75	4920,59
481,96	5122,65
482,16	5084,42
482,36	5111,05
482,57	5094,66
482,77	5070,09
482,97	5225,73
483,18	5247,58
483,38	5077,60
483,58	5164,29
483,79	5094,66
483,99	5174,53
484,19	5154,05
484,40	5304,92
484,60	5149,28
484,80	5273,52
485,01	5197,74
485,21	5188,19
485,41	5033,22
485,62	4842,76
485,82	4813,41
486,02	4695,31
486,23	4659,13
486,43	4660,49
486,63	4643,43
486,84	4668,00
487,04	4858,46
487,24	4835,94
487,45	4968,37
487,65	5106,95
487,85	5068,72
488,06	5353,39
488,26	5278,98
488,46	5242,80
488,67	5269,42
488,87	5290,59
489,07	5304,92
489,27	5424,39
489,48	5554,09
489,68	5499,48
489,88	5541,80
490,09	5668,09
490,29	5642,84
490,49	5694,72
490,70	5679,02
490,90	5615,53
491,10	5608,70
491,30	5577,30
491,51	5470,81
491,71	5560,92
491,91	5418,24
492,12	5487,87
492,32	5478,32
492,52	5502,89
492,72	5518,59
492,93	5562,28
493,13	5573,89
493,33	5637,38
493,53	5522,69
493,74	5640,79
493,94	5704,28
494,14	5650,35
494,34	5769,81
494,55	5789,61
494,75	5790,97
494,95	5775,27
495,16	5851,73
495,36	5814,87
495,56	5805,99
495,76	5823,06
495,97	5802,58
496,17	5829,20
496,37	5754,79
496,57	5782,78
496,78	5806,67
496,98	5745,24
497,18	5782,10
497,38	5763,67
497,59	5875,62
497,79	5693,35
497,99	5661,27
498,19	5615,53
498,39	5513,81
498,60	5611,43
498,80	5607,34
499,00	5598,46
499,20	5538,39
499,41	5550,00
499,61	5487,19
499,81	5550,00
500,01	5512,45
500,22	5436,67
500,42	5365,00
500,62	5285,12
500,82	5235,97
501,02	5293,32
501,23	5189,55
501,43	5100,81
501,63	5141,08
501,83	5097,39
502,03	5113,78
502,24	5059,17
502,44	5035,96
502,64	5173,17
502,84	5123,34
503,05	5164,29
503,25	5101,49
503,45	5090,57
503,65	5192,97
503,85	5016,16
504,06	5000,46
504,26	5040,05
504,46	5025,72
504,66	5031,86
504,86	5090,57
505,06	5124,02
505,27	5179,31
505,47	5160,88
505,67	5156,79
505,87	5160,88
506,07	5214,13
506,28	5328,13
506,48	5210,72
506,68	5317,89
506,88	5206,62
507,08	5208,67
507,28	5305,60
507,49	5266,69
507,69	5160,88
507,89	5082,38
508,09	5177,26
508,29	5059,17
508,49	5111,73
508,70	5137,67
508,90	5150,64
509,10	5274,20
509,30	5170,44
509,50	5248,26
509,70	5188,87
509,91	5159,52
510,11	5190,24
510,31	5195,01
510,51	5161,56
510,71	5296,05
510,91	5188,87
511,11	5320,62
511,32	5308,33
511,52	5139,04
511,72	5394,35
511,92	5292,63
512,12	5360,90
512,32	5261,91
512,52	5093,30
512,73	5233,93
512,93	5172,49
513,13	5171,12
513,33	5108,32
513,53	5183,41
513,73	5113,78
513,93	5027,76
514,13	5016,84
514,34	4981,34
514,54	5064,63
514,74	5053,70
514,94	5031,18
515,14	5081,01
515,34	5058,48
515,54	5084,42
515,74	5168,39
515,94	5156,10
516,15	4947,21
516,35	4909,66
516,55	4771,08
516,75	4629,77
516,95	4652,30
517,15	4559,46
517,35	4530,79
517,55	4569,70
517,75	4680,97
517,95	4573,80
518,16	4635,92
518,36	4568,34
518,56	4610,66
518,76	4693,94
518,96	4648,21
519,16	4698,72
519,36	4862,56
519,56	4846,18
519,76	4917,17
519,96	4873,48
520,16	4893,96
520,37	4957,45
520,57	4958,82
520,77	4971,79
520,97	5046,88
521,17	5044,83
521,37	5081,01
521,57	4977,25
521,77	5142,45
521,97	5025,72
522,17	5005,24
522,37	5050,97
522,57	4971,79
522,77	4934,24
522,97	5022,30
523,17	4911,71
523,37	4991,58
523,58	4912,39
523,78	4990,22
523,98	5038,00
524,18	5092,62
524,38	5060,53
524,58	5029,81
524,78	5025,03
524,98	5007,28
525,18	4962,91
525,38	4964,28
525,58	4911,03
525,78	4911,03
525,98	4810,00
526,18	4777,91
526,38	4689,85
526,58	4579,26
526,78	4564,92
526,98	4429,76
527,18	4490,51
527,38	4476,18
527,58	4470,72
527,78	4496,66
527,98	4547,17
528,18	4694,63
528,38	4631,14
528,58	4704,87
528,78	4657,76
528,98	4668,69
529,18	4782,01
529,38	4776,55
529,58	4655,72
529,78	4752,65
529,98	4708,28
530,18	4767,67
530,38	4667,32
530,58	4766,99
530,78	4670,05
530,98	4732,86
531,18	4768,35
531,38	4712,38
531,58	4682,34
531,78	4581,99
531,98	4620,90
532,18	4547,86
532,38	4560,14
532,58	4487,78
532,78	4442,04
532,98	4446,14
533,18	4403,13
533,38	4330,77
533,58	4426,34
533,78	4510,99
533,98	4424,98
534,18	4390,16
534,38	4341,69
534,58	4487,10
534,78	4497,34
534,98	4572,43
535,18	4556,73
535,38	4545,13
535,58	4574,48
535,78	4573,80
535,98	4685,75
536,18	4572,43
536,38	4516,45
536,58	4631,14
536,78	4604,52
536,98	4470,03
537,18	4495,97
537,38	4443,41
537,58	4418,83
537,78	4513,72
537,98	4460,48
538,17	4495,97
538,37	4488,46
538,57	4472,08
538,77	4466,62
538,97	4478,91
539,17	4421,56
539,37	4422,25
539,57	4336,92
539,77	4348,52
539,97	4337,60
540,17	4322,58
540,37	4309,61
540,57	4220,86
540,77	4194,24
540,97	4221,55
541,16	4188,10
541,36	4106,86
541,56	4129,39
541,76	4250,90
541,96	4229,74
542,16	4159,42
542,36	4262,51
542,56	4177,17
542,76	4220,86
542,96	4171,71
543,16	4070,68
543,36	4162,16
543,55	4102,76
543,75	4280,94
543,95	4139,63
544,15	4136,21
544,35	4139,63
544,55	4153,96
544,75	4095,94
544,95	4204,48
545,15	4076,82
545,35	4095,94
545,54	4078,87
545,74	4085,70
545,94	4052,93
546,14	4078,87
546,34	4134,85
546,54	3968,96
546,74	4044,74
546,94	4002,41
547,14	4022,89
547,33	4095,94
547,53	3943,71
547,73	3923,23
547,93	3932,78
548,13	3869,30
548,33	3999,68
548,53	4050,88
548,72	3940,29
548,92	4009,92
549,12	3869,30
549,32	3914,35
549,52	3929,37
549,72	3945,75
549,92	3850,18
550,12	3887,73
550,31	3970,33
550,51	3815,37
550,71	3825,61
550,91	3917,76
551,11	3926,64
551,31	3923,91
551,50	3837,21
551,70	3826,29
551,90	3903,43
552,10	3835,16
552,30	3859,74
552,50	3845,40
552,70	3769,63
552,89	3829,02
553,09	3754,61
553,29	3799,66
553,49	3786,01
553,69	3851,55
553,88	3714,33
554,08	3732,76
554,28	3760,75
554,48	3755,97
554,68	3758,02
554,88	3775,09
555,07	3848,82
555,27	3638,56
555,47	3708,87
555,67	3741,64
555,87	3717,06
556,06	3694,54
556,26	3631,05
556,46	3663,82
556,66	3625,59
556,86	3598,28
557,06	3564,15
557,25	3635,83
557,45	3449,46
557,65	3557,32
557,85	3540,94
558,05	3466,53
558,24	3530,02
558,44	3427,62
558,64	3463,80
558,84	3402,36
559,03	3413,28
559,23	3297,23
559,43	3351,16
559,63	3314,98
559,83	3253,54
560,02	3314,30
560,22	3369,59
560,42	3335,46
560,62	3323,85
560,82	3338,19
561,01	3366,86
561,21	3348,43
561,41	3309,52
561,61	3320,44
561,80	3155,24
562,00	3164,11
562,20	3161,38
562,40	3246,71
562,59	3254,22
562,79	3221,45
562,99	3246,03
563,19	3188,00
563,38	3224,19
563,58	3118,37
563,78	3285,62
563,98	3182,54
564,17	3151,82
564,37	3134,07
564,57	3119,06
564,77	3148,41
564,96	3108,13
565,16	3129,30
565,36	2994,13
565,56	2940,20
565,75	2950,44
565,95	2939,52
566,15	2983,21
566,35	3054,20
566,54	2999,59
566,74	2998,91
566,94	2982,53
567,14	2997,54
567,33	3011,20
567,53	3046,01
567,73	2916,31
567,92	2913,58
568,12	2872,62
568,32	2891,73
568,52	2787,97
568,71	2809,13
568,91	2896,51
569,11	2884,22
569,30	2823,47
569,50	2844,63
569,70	2766,81
569,90	2734,04
570,09	2708,78
570,29	2700,59
570,49	2723,80
570,68	2681,47
570,88	2665,77
571,08	2648,02
571,27	2589,32
571,47	2598,87
571,67	2571,57
571,87	2654,85
572,06	2580,44
572,26	2645,98
572,46	2577,03
572,65	2615,94
572,85	2635,05
573,05	2677,38
573,24	2595,46
573,44	2587,27
573,64	2535,39
573,83	2598,87
574,03	2571,57
574,23	2637,10
574,42	2602,29
574,62	2590,00
574,82	2502,62
575,01	2494,43
575,21	2495,79
575,41	2525,83
575,60	2498,52
575,80	2516,95
576,00	2472,58
576,19	2482,82
576,39	2590,00
576,59	2542,21
576,78	2454,83
576,98	2533,34
577,18	2447,32
577,37	2441,86
577,57	2495,79
577,77	2517,64
577,96	2426,16
578,16	2383,15
578,35	2485,55
578,55	2416,60
578,75	2415,24
578,94	2478,72
579,14	2579,76
579,34	2402,27
579,53	2521,05
579,73	2586,58
579,93	2502,62
580,12	2540,16
580,32	2626,18
580,51	2587,27
580,71	2521,73
580,91	2577,71
581,10	2659,63
581,30	2611,16
581,50	2643,24
581,69	2633,01
581,89	2587,27
582,08	2671,23
582,28	2620,72
582,48	2721,07
582,67	2680,11
582,87	2691,71
583,06	2678,06
583,26	2691,71
583,46	2670,55
583,65	2755,20
583,85	2744,96
584,04	2783,19
584,24	2726,53
584,44	2821,42
584,63	2820,74
584,83	2768,85
585,02	2746,33
585,22	2762,71
585,42	2737,45
585,61	2678,74
585,81	2722,43
586,00	2701,27
586,20	2692,40
586,39	2634,37
586,59	2705,37
586,79	2698,54
586,98	2639,83
587,18	2628,23
587,37	2727,21
587,57	2646,66
587,76	2660,99
587,96	2645,29
588,16	2611,84
588,35	2559,28
588,55	2547,67
588,74	2420,70
588,94	2448,69
589,13	2354,48
589,33	2306,70
589,52	2265,74
589,72	2208,39
589,92	2339,46
590,11	2358,58
590,31	2355,85
590,50	2463,71
590,70	2386,57
590,89	2350,39
591,09	2379,74
591,28	2453,47
591,48	2488,28
591,67	2499,20
591,87	2415,24
592,06	2417,97
592,26	2457,56
592,46	2450,74
592,65	2364,04
592,85	2374,28
593,04	2443,23
593,24	2401,58
593,43	2344,24
593,63	2360,63
593,82	2402,95
594,02	2339,46
594,21	2286,90
594,41	2260,27
594,60	2338,10
594,80	2318,30
594,99	2340,15
595,19	2305,33
595,38	2354,48
595,58	2247,99
595,77	2279,39
595,97	2282,80
596,16	2349,02
596,36	2295,09
596,55	2256,86
596,75	2281,44
596,94	2306,70
597,14	2308,06
597,33	2278,71
597,53	2269,83
597,72	2226,82
597,92	2245,26
598,11	2252,08
598,31	2240,48
598,50	2196,11
598,70	2162,66
598,89	2121,01
599,09	2117,60
599,28	2241,84
599,48	2185,87
599,67	2140,13
599,87	2136,71
600,06	2110,09
600,26	2145,59
600,45	2097,80
600,64	2107,36
600,84	2118,28
601,03	2148,32
601,23	2057,53
601,42	2127,84
601,62	2018,61
601,81	2053,43
602,01	2070,50
602,20	2095,07
602,40	2118,28
602,59	2086,88
602,78	2076,64
602,98	1983,80
603,17	2075,28
603,37	2109,41
603,56	2073,91
603,76	2161,97
603,95	2105,99
604,15	2066,40
604,34	2086,20
604,53	2054,11
604,73	2126,47
604,92	2112,82
605,12	2087,56
605,31	2095,75
605,51	2061,62
605,70	2098,49
605,89	2054,11
606,09	2133,30
606,28	2039,78
606,48	2066,40
606,67	2065,04
606,87	2057,53
607,06	2019,30
607,25	2039,78
607,45	2080,05
607,64	2034,32
607,84	2097,12
608,03	1971,51
608,22	1959,22
608,42	2037,05
608,61	2021,35
608,81	2004,96
609,00	2025,44
609,19	2033,63
609,39	1987,21
609,58	2058,89
609,78	1970,15
609,97	2027,49
610,16	2024,76
610,36	2002,91
610,55	2001,55
610,75	2039,78
610,94	2009,74
611,13	1979,70
611,33	2088,25
611,52	1960,59
611,71	2046,60
611,91	1910,07
612,10	1983,80
612,30	1987,21
612,49	2021,35
612,68	1983,12
612,88	1959,91
613,07	2003,60
613,26	1965,37
613,46	2009,74
613,65	1987,21
613,84	2031,58
614,04	1970,15
614,23	1926,46
614,43	2082,10
614,62	1982,43
614,81	2039,09
615,01	2026,12
615,20	2000,87
615,39	2037,05
615,59	1969,46
615,78	2035,00
615,97	1960,59
616,17	1940,79
616,36	1969,46
616,55	2024,76
616,75	1957,86
616,94	1973,56
617,13	1975,61
617,33	2003,60
617,52	2000,18
617,71	2028,17
617,91	2028,85
618,10	1963,32
618,29	2039,78
618,49	2012,47
618,68	2043,19
618,87	2004,96
619,07	2034,32
619,26	2084,83
619,45	2099,85
619,65	1999,50
619,84	2028,85
620,03	2058,21
620,22	2058,21
620,42	1998,13
620,61	2044,56
620,80	2110,09
621,00	2043,87
621,19	2082,10
621,38	2095,07
621,58	2080,05
621,77	1976,97
621,96	2053,43
622,15	2032,95
622,35	1947,62
622,54	1952,40
622,73	2071,86
622,93	2002,91
623,12	2020,66
623,31	1972,19
623,50	2033,63
623,70	2015,20
623,89	1965,37
624,08	2075,27
624,28	2015,88
624,47	2008,37
624,66	1965,37
624,85	1993,36
625,05	1958,54
625,24	2007,69
625,43	1966,05
625,62	1977,66
625,82	1972,19
626,01	1949,67
626,20	1970,15
626,39	1927,14
626,59	1914,85
626,78	1979,02
626,97	1975,61
627,17	1968,78
627,36	1920,31
627,55	1873,21
627,74	1768,08
627,93	1847,27
628,13	1810,40
628,32	1771,49
628,51	1764,67
628,70	1804,94
628,90	1798,12
629,09	1800,85
629,28	1744,87
629,47	1802,21
629,67	1804,94
629,86	1835,66
630,05	1860,92
630,24	1815,87
630,44	1794,02
630,63	1824,06
630,82	1804,94
631,01	1845,90
631,20	1839,08
631,40	1878,67
631,59	1884,81
631,78	1885,50
631,97	1859,56
632,16	1946,94
632,36	1883,45
632,55	1856,14
632,74	1897,78
632,93	1881,40
633,13	1942,84
633,32	1893,69
633,51	1907,34
633,70	1943,52
633,89	1899,15
634,09	1938,06
634,28	1947,62
634,47	1957,18
634,66	2043,87
634,85	1972,88
635,04	2028,17
635,24	1945,57
635,43	1959,91
635,62	2036,36
635,81	1969,46
636,00	1932,60
636,20	1985,85
636,39	1987,89
636,58	2006,33
636,77	1977,66
636,96	1988,58
637,15	2004,96
637,35	2010,42
637,54	2047,97
637,73	2086,88
637,92	2110,77
638,11	2060,94
638,30	2083,47
638,50	2013,84
638,69	2125,79
638,88	2000,18
639,07	2080,74
639,26	2053,43
639,45	2028,17
639,64	2015,88
639,84	2075,28
640,03	1971,51
640,22	2050,02
640,41	1955,81
640,60	1987,89
640,79	2050,02
640,98	2036,36
641,18	2082,10
641,37	1979,70
641,56	2001,55
641,75	2065,72
641,94	1997,45
642,13	2041,82
642,32	2057,53
642,52	2009,06
642,71	2017,25
642,90	2039,09
643,09	1987,90
643,28	2000,87
643,47	2081,42
643,66	2039,78
643,85	1975,61
644,04	1987,89
644,24	2007,01
644,43	1979,70
644,62	1974,92
644,81	1991,99
645,00	1983,80
645,19	2006,33
645,38	1998,82
645,57	1895,05
645,76	1957,86
645,96	1953,08
646,15	1985,16
646,34	1799,48
646,53	1875,26
646,72	1931,92
646,91	1899,83
647,10	1927,14
647,29	1834,30
647,48	1901,88
647,67	1811,09
647,86	1855,46
648,05	1817,91
648,25	1790,61
648,44	1925,09
648,63	1867,75
648,82	1860,24
649,01	1811,77
649,20	1847,27
649,39	1773,54
649,58	1765,35
649,77	1883,45
649,96	1822,01
650,15	1847,27
650,34	1781,05
650,53	1824,74
650,72	1862,97
650,91	1917,58
651,11	1937,38
651,30	1832,93
651,49	1815,18
651,68	1803,58
651,87	1758,52
652,06	1806,99
652,25	1794,70
652,44	1804,94
652,63	1819,96
652,82	1824,06
653,01	1847,95
653,20	1810,40
653,39	1836,35
653,58	1774,91
653,77	1815,87
653,96	1743,50
654,15	1852,05
654,34	1854,78
654,53	1848,63
654,72	1768,08
654,91	1784,46
655,10	1746,23
655,29	1745,55
655,48	1684,11
655,67	1639,74
655,86	1578,98
656,05	1596,73
656,24	1512,77
656,43	1551,00
656,62	1513,45
656,81	1548,95
657,00	1569,43
657,19	1548,95
657,38	1669,09
657,57	1662,27
657,76	1674,56
657,95	1656,12
658,14	1678,65
658,33	1808,36
658,52	1680,70
658,71	1731,22
658,90	1700,50
659,09	1722,34
659,28	1746,92
659,47	1768,76
659,66	1766,03
659,85	1749,65
660,04	1703,23
660,23	1725,07
660,42	1739,41
660,61	1767,40
660,80	1735,99
660,99	1721,66
661,18	1735,99
661,37	1714,83
661,56	1729,17
661,75	1796,07
661,94	1754,43
662,13	1788,56
662,32	1784,46
662,51	1800,16
662,70	1806,31
662,89	1749,65
663,08	1755,79
663,27	1697,08
663,46	1753,74
663,65	1760,57
663,83	1718,93
664,02	1814,50
664,21	1688,21
664,40	1669,09
664,59	1668,41
664,78	1680,02
664,97	1727,12
665,16	1670,46
665,35	1748,28
665,54	1701,86
665,73	1744,87
665,92	1635,64
666,11	1733,95
666,30	1714,83
666,49	1602,88
666,67	1616,53
666,86	1744,87
667,05	1706,64
667,24	1590,59
667,43	1669,09
667,62	1755,11
667,81	1619,26
668,00	1680,02
668,19	1677,29
668,38	1724,39
668,57	1617,21
668,76	1634,96
668,94	1649,30
669,13	1654,08
669,32	1626,77
669,51	1684,11
669,70	1703,23
669,89	1718,93
670,08	1615,85
670,27	1600,83
670,46	1649,30
670,64	1611,07
670,83	1606,97
671,02	1641,11
671,21	1643,15
671,40	1575,57
671,59	1585,81
671,78	1570,79
671,97	1591,95
672,16	1536,66
672,34	1588,54
672,53	1588,54
672,72	1563,28
672,91	1618,58
673,10	1607,66
673,29	1601,51
673,48	1613,12
673,66	1624,04
673,85	1594,68
674,04	1497,75
674,23	1571,47
674,42	1628,14
674,61	1586,49
674,80	1526,42
674,98	1626,09
675,17	1546,90
675,36	1550,99
675,55	1600,15
675,74	1568,74
675,93	1587,86
676,12	1533,25
676,30	1541,44
676,49	1567,38
676,68	1522,32
676,87	1591,27
677,06	1541,44
677,25	1551,68
677,43	1497,07
677,62	1510,04
677,81	1504,57
678,00	1518,91
678,19	1535,29
678,37	1550,99
678,56	1524,37
678,75	1555,77
678,94	1520,96
679,13	1554,41
679,32	1536,66
679,50	1495,70
679,69	1536,66
679,88	1424,70
680,07	1512,08
680,26	1490,92
680,44	1488,87
680,63	1511,40
680,82	1478,63
681,01	1526,42
681,20	1449,28
681,38	1458,84
681,57	1463,62
681,76	1477,27
681,95	1462,93
682,14	1467,03
682,32	1520,28
682,51	1495,02
682,70	1401,49
682,89	1456,11
683,07	1451,33
683,26	1495,70
683,45	1431,53
683,64	1458,84
683,83	1447,23
684,01	1381,01
684,20	1411,05
684,39	1418,56
684,58	1477,27
684,76	1449,28
684,95	1426,75
685,14	1399,45
685,33	1387,84
685,52	1339,37
685,70	1369,41
685,89	1356,44
686,08	1310,02
686,27	1226,05
686,45	1217,18
686,64	1132,53
686,83	1041,05
687,02	965,28
687,20	947,53
687,39	809,63
687,58	800,07
687,76	845,13
687,95	800,76
688,14	808,95
688,33	798,71
688,51	802,12
688,70	873,12
688,89	864,93
689,08	798,71
689,26	802,12
689,45	746,83
689,64	781,64
689,83	824,65
690,01	906,57
690,20	875,17
690,39	833,52
690,57	856,73
690,76	968,01
690,95	912,03
691,14	946,16
691,32	1007,60
691,51	1000,09
691,70	999,41
691,88	1072,45
692,07	1086,79
692,26	1062,90
692,44	1084,06
692,63	1060,85
692,82	1075,87
693,01	1056,07
693,19	1054,02
693,38	1102,49
693,57	1133,21
693,75	1030,13
693,94	1101,12
694,13	1148,23
694,31	1106,59
694,50	1146,18
694,69	1109,32
694,87	1110,00
695,06	1085,42
695,25	1137,31
695,43	1090,20
695,62	1095,66
695,81	1125,70
695,99	1118,87
696,18	1176,22
696,37	1145,50
696,55	1137,31
696,74	1160,52
696,93	1175,53
697,11	1111,36
697,30	1174,17
697,49	1189,87
697,67	1187,82
697,86	1192,60
698,05	1183,04
698,23	1170,76
698,42	1197,38
698,61	1174,85
698,79	1135,94
698,98	1176,90
699,17	1166,66
699,35	1205,57
699,54	1128,43
699,72	1139,35
699,91	1168,71
700,10	1116,14
700,28	1122,29
700,47	1062,90
700,66	1016,48
700,84	1079,96
701,03	1096,35
701,21	1042,42
701,40	1079,28
701,59	1125,02
701,77	1068,36
701,96	1092,25
702,15	1055,39
702,33	1126,38
702,52	1105,22
702,70	1082,01
702,89	1115,46
703,08	1056,07
703,26	1129,11
703,45	1097,71
703,63	1138,67
703,82	1120,92
704,01	1110,00
704,19	1141,40
704,38	1060,17
704,56	1144,81
704,75	1061,53
704,94	1120,24
705,12	1068,36
705,31	1101,12
705,49	1086,79
705,68	1143,45
705,86	1077,91
706,05	1077,91
706,24	1107,27
706,42	1026,03
706,61	1116,83
706,79	1064,94
706,98	1100,44
707,17	1058,80
707,35	1125,02
707,54	1062,90
707,72	1115,46
707,91	1110,68
708,09	1003,50
708,28	1091,57
708,46	1054,02
708,65	1094,30
708,84	1114,78
709,02	1035,59
709,21	1106,59
709,39	1051,29
709,58	1043,10
709,76	1053,34
709,95	1041,05
710,13	1049,24
710,32	1066,31
710,50	1112,73
710,69	1008,97
710,88	1096,35
711,06	1047,88
711,25	1047,19
711,43	1165,98
711,62	1088,15
711,80	1054,02
711,99	980,98
712,17	1047,19
712,36	988,49
712,54	1037,64
712,73	963,91
712,91	1032,86
713,10	1021,25
713,28	1071,77
713,47	1034,91
713,65	976,88
713,84	1027,40
714,02	1025,35
714,21	1009,65
714,39	985,76
714,58	972,79
714,76	903,84
714,95	985,76
715,13	1032,18
715,32	993,26
715,50	940,70
715,69	1054,70
715,87	944,11
716,06	929,10
716,24	924,32
716,43	858,10
716,61	843,76
716,80	856,73
716,98	784,37
717,17	810,31
717,35	677,88
717,54	746,14
717,72	726,35
717,91	740,00
718,09	628,04
718,28	674,46
718,46	688,12
718,65	677,19
718,83	639,65
719,01	570,02
719,20	617,12
719,38	617,12
719,57	582,31
719,75	579,58
719,94	574,80
720,12	630,77
720,31	552,95
720,49	552,95
720,68	625,31
720,86	637,60
721,04	707,23
721,23	698,36
721,41	658,08
721,60	749,56
721,78	686,75
721,97	765,26
722,15	715,42
722,34	789,83
722,52	759,80
722,70	758,43
722,89	690,85
723,07	694,26
723,26	705,18
723,44	648,52
723,63	684,70
723,81	673,78
723,99	624,63
724,18	662,86
724,36	669,69
724,55	627,36
724,73	590,50
724,91	614,39
725,10	617,12
725,28	681,97
725,47	654,67
725,65	632,14
725,83	662,18
726,02	589,81
726,20	606,88
726,39	582,99
726,57	573,43
726,75	583,67
726,94	639,65
727,12	664,22
727,31	598,01
727,49	634,87
727,67	569,34
727,86	628,04
728,04	633,50
728,23	616,44
728,41	626,68
728,59	610,98
728,78	638,97
728,96	613,03
729,14	621,22
729,33	623,95
729,51	602,79
729,69	599,37
729,88	632,14
730,06	643,74
730,25	589,81
730,43	574,80
730,61	566,60
730,80	635,55
730,98	572,07
731,16	617,12
731,35	629,41
731,53	582,31
731,71	586,40
731,90	596,64
732,08	621,22
732,26	627,36
732,45	625,31
732,63	643,74
732,81	598,69
733,00	700,41
733,18	651,94
733,36	631,46
733,55	630,77
733,73	669,69
733,91	688,12
734,10	669,00
734,28	692,90
734,46	679,24
734,65	673,10
734,83	705,87
735,01	679,93
735,20	685,39
735,38	657,40
735,56	698,36
735,75	656,72
735,93	717,47
736,11	691,53
736,30	695,63
736,48	645,79
736,66	687,43
736,84	693,58
737,03	661,49
737,21	646,48
737,39	628,73
737,58	692,21
737,76	719,52
737,94	643,06
738,12	690,17
738,31	623,95
738,49	617,80
738,67	668,32
738,86	648,52
739,04	640,33
739,22	678,56
739,40	570,02
739,59	633,51
739,77	692,21
739,95	632,82
740,14	678,56
740,32	671,73
740,50	636,92
740,68	673,78
740,87	613,71
741,05	629,41
741,23	678,56
741,41	634,19
741,60	679,93
741,78	630,77
741,96	603,47
742,14	560,46
742,33	645,79
742,51	662,86
742,69	628,04
742,87	587,08
743,06	653,98
743,24	690,85
743,42	588,45
743,60	653,98
743,79	617,80
743,97	623,27
744,15	652,62
744,33	666,27
744,52	602,79
744,70	632,82
744,88	667,64
745,06	649,89
745,24	673,10
745,43	578,21
745,61	626,00
745,79	604,83
745,97	651,94
746,16	656,72
746,34	682,66
746,52	666,27
746,70	645,79
746,88	562,51
747,07	619,85
747,25	606,20
747,43	590,50
747,61	578,89
747,79	604,15
747,98	620,53
748,16	553,63
748,34	595,96
748,52	593,91
748,70	617,12
748,89	568,65
749,07	632,82
749,25	570,70
749,43	599,37
749,61	595,28
749,79	626,68
749,98	592,55
750,16	580,94
750,34	563,19
750,52	546,81
750,70	628,73
750,88	647,16
751,07	552,27
751,25	507,90
751,43	577,53
751,61	600,74
751,79	568,65
751,97	515,41
752,16	585,72
752,34	579,58
752,52	559,10
752,70	546,12
752,88	562,51
753,06	574,11
753,25	587,08
753,43	576,84
753,61	560,46
753,79	533,15
753,97	565,24
754,15	597,32
754,33	499,02
754,52	563,19
754,70	525,65
754,88	567,97
755,06	524,96
755,24	528,38
755,42	529,06
755,60	576,16
755,78	583,67
755,97	595,28
756,15	556,36
756,33	537,25
756,51	517,45
756,69	592,55
756,87	559,78
757,05	522,91
757,23	550,22
757,41	548,17
757,60	566,60
757,78	547,49
757,96	571,38
758,14	531,11
758,32	519,50
758,50	499,70
758,68	475,13
758,86	463,52
759,04	440,31
759,22	421,88
759,41	307,20
759,59	360,44
759,77	277,16
759,95	218,45
760,13	194,56
760,31	111,96
760,49	122,20
760,67	86,01
760,85	92,84
761,03	105,13
761,21	54,61
761,39	77,14
761,57	24,58
761,76	48,47
761,94	88,75
762,12	112,64
762,30	85,33
762,48	133,12
762,66	38,23
762,84	37,55
763,02	38,23
763,20	77,14
763,38	-27,31
763,56	31,40
763,74	36,18
763,92	98,30
764,10	-4,10
764,28	49,83
764,46	83,28
764,64	94,89
764,82	83,28
765,00	83,28
765,19	161,79
765,37	99,67
765,55	102,40
765,73	137,90
765,91	162,47
766,09	158,38
766,27	228,69
766,45	279,21
766,63	203,43
766,81	289,45
766,99	309,93
767,17	295,59
767,35	331,77
767,53	321,53
767,71	380,92
767,89	426,66
768,07	370,68
768,25	419,15
768,43	386,38
768,61	405,50
768,79	413,01
768,97	453,97
769,15	404,82
769,33	454,65
769,51	442,36
769,69	441,68
769,87	447,82
770,05	481,96
770,23	469,67
770,41	496,29
770,59	488,10
770,77	523,60
770,95	462,84
771,13	437,58
771,31	458,74
771,49	456,70
771,67	462,84
771,85	447,82
772,03	476,49
772,21	475,13
772,38	494,93
772,56	447,82
772,74	438,95
772,92	463,52
773,10	442,36
773,28	447,14
773,46	527,69
773,64	506,53
773,82	422,56
774,00	438,95
774,18	466,94
774,36	463,52
774,54	441,00
774,72	437,58
774,90	485,37
775,08	471,03
775,26	364,54
775,44	448,51
775,62	433,49
775,80	419,15
775,97	423,93
776,15	491,51
776,33	469,67
776,51	422,56
776,69	456,70
776,87	415,06
777,05	411,64
777,23	462,84
777,41	423,25
777,59	400,04
777,77	459,43
777,95	410,28
778,13	395,26
778,30	453,97
778,48	478,54
778,66	425,29
778,84	385,02
779,02	432,80
779,20	394,58
779,38	421,20
779,56	392,53
779,74	428,03
779,92	441,68
780,09	407,55
780,27	389,80
780,45	435,53
780,63	388,43
780,81	475,81
780,99	441,00
781,17	396,62
781,35	356,35
781,52	391,84
781,70	456,70
781,88	382,97
782,06	359,08
782,24	429,39
782,42	348,84
782,60	426,66
782,78	356,35
782,95	371,37
783,13	395,94
783,31	399,35
783,49	380,24
783,67	377,51
783,85	372,05
784,03	350,20
784,20	394,58
784,38	372,05
784,56	346,11
784,74	363,86
784,92	348,84
785,10	385,70
785,28	357,03
785,45	344,06
785,63	377,51
785,81	329,72
785,99	320,85
786,17	391,84
786,35	302,42
786,52	331,77
786,70	294,22
786,88	365,22
787,06	291,49
787,24	269,65
787,41	284,67
787,59	273,75
787,77	277,84
787,95	359,76
788,13	336,55
788,31	333,14
788,48	244,39
788,66	324,26
788,84	280,57
789,02	305,83
789,20	275,11
789,37	289,45
789,55	328,36
789,73	221,86
789,91	325,63
790,09	311,97
790,26	336,55
790,44	313,34
790,62	287,40
790,80	293,54
790,98	232,10
791,15	290,13
791,33	275,79
791,51	236,88
791,69	251,90
791,86	250,53
792,04	260,77
792,22	294,22
792,40	332,45
792,58	247,12
792,75	228,01
792,93	324,26
793,11	237,56
793,29	234,83
793,46	256,00
793,64	242,34
793,82	221,86
794,00	198,65
794,17	235,52
794,35	281,25
794,53	256,00
794,71	243,03
794,88	208,21
795,06	190,46
795,24	318,12
795,42	226,64
795,59	246,44
795,77	209,58
795,95	299,69
796,13	215,72
796,30	240,98
796,48	210,26
796,66	244,39
796,83	300,37
797,01	223,91
797,19	249,85
797,37	250,53
797,54	283,99
797,72	222,55
797,90	225,96
798,08	207,53
798,25	283,98
798,43	248,49
798,61	237,56
798,78	185,00
798,96	249,17
799,14	246,44
799,31	236,20
799,49	279,21
799,67	225,28
799,85	201,38
800,02	228,69
800,20	180,22
800,38	209,58
800,55	288,08
800,73	207,53
800,91	181,59
801,08	213,67
801,26	266,24
801,44	208,89
801,61	172,71
801,79	254,63
801,97	205,48
802,15	201,38
802,32	207,53
802,50	180,90
802,68	172,03
802,85	174,08
803,03	232,10
803,21	199,34
803,38	187,73
803,56	195,92
803,74	148,14
803,91	165,20
804,09	179,54
804,26	180,90
804,44	178,86
804,62	242,34
804,79	150,87
804,97	178,86
805,15	181,59
805,32	145,41
805,50	179,54
805,68	119,46
805,85	217,08
806,03	204,80
806,21	163,84
806,38	190,46
806,56	167,25
806,73	202,07
806,91	195,92
807,09	217,08
807,26	178,86
807,44	169,98
807,62	197,97
807,79	193,19
807,97	149,50
808,14	182,95
808,32	146,09
808,50	154,96
808,67	101,72
808,85	150,18
809,02	129,02
809,20	175,44
809,38	161,11
809,55	190,46
809,73	185,00
809,90	179,54
810,08	133,80
810,26	154,96
810,43	157,01
810,61	178,86
810,78	121,51
810,96	96,25
811,14	129,70
811,31	160,42
811,49	134,48
811,66	144,04
811,84	132,44
812,02	176,81
812,19	150,87
812,37	147,45
812,54	136,53
812,72	123,56
812,89	118,10
813,07	126,29
813,25	77,82
813,42	127,66
813,60	138,58
813,77	115,37
813,95	133,12
814,12	163,84
814,30	120,15
814,47	101,72
814,65	115,37
814,83	86,01
815,00	137,21
815,18	42,32
815,35	139,26
815,53	60,07
815,70	137,21
815,88	76,46
816,05	95,57
816,23	90,79
816,40	98,30
816,58	62,12
816,75	96,25
816,93	67,58
817,10	100,35
817,28	92,16
817,46	51,20
817,63	51,20
817,81	86,70
817,98	81,24
818,16	64,17
818,33	99,67
818,51	46,42
818,68	33,45
818,86	105,13
819,03	96,25
819,21	83,97
819,38	58,71
819,56	92,84
819,73	64,17
819,91	73,73
820,08	49,15
820,26	71,00
820,43	88,75
820,61	96,94
820,78	47,79
820,96	27,31
821,13	30,72
821,31	45,06
821,48	66,22
821,66	118,78
821,83	58,03
822,00	96,25
822,18	93,52
822,35	91,48
822,53	106,49
822,70	83,28
822,88	104,45
823,05	66,90
823,23	97,62
823,40	62,12
823,58	124,93
823,75	73,04
823,93	71,68
824,10	95,57
824,28	49,15
824,45	101,03
824,62	33,45
824,80	101,03
824,97	71,00
825,15	102,40
825,32	72,36
825,50	78,51
825,67	58,71
825,85	21,16
826,02	52,56
826,19	110,59
826,37	17,07
826,54	14,34
826,72	59,39
826,89	83,97
827,07	30,72
827,24	83,97
827,41	89,43
827,59	83,97
827,76	68,27
827,94	55,98
828,11	43,69
828,28	118,78
828,46	46,42
828,63	91,48
828,81	51,20
828,98	1,37
829,15	115,37
829,33	72,36
829,50	55,30
829,68	86,70
829,85	120,15
830,02	129,70
830,20	56,66
830,37	68,27
830,55	126,97
830,72	8,87
830,89	13,65
831,07	45,74
831,24	46,42
831,42	33,45
831,59	17,75
831,76	80,55
831,94	55,30
832,11	27,31
832,28	2,73
832,46	40,96
832,63	45,74
832,81	47,79
832,98	66,90
833,15	40,96
833,33	99,67
833,50	86,70
833,67	83,97
833,85	23,89
834,02	55,98
834,19	51,88
834,37	66,22
834,54	76,46
834,71	89,43
834,89	103,08
835,06	108,54
835,23	38,23
835,41	43,69
835,58	58,71
835,75	30,04
835,93	55,98
836,10	86,01
836,27	83,97
836,45	92,16
836,62	49,83
836,79	38,91
836,97	32,08
837,14	103,76
837,31	34,13
837,49	57,34
837,66	64,85
837,83	27,99
838,01	28,67
838,18	35,50
838,35	40,28
838,53	83,28
838,70	77,14
838,87	18,43
839,04	53,25
839,22	101,72
839,39	26,62
839,56	63,49
839,74	39,59
839,91	54,61
840,08	126,29
840,26	-1,37
840,43	55,30
840,60	51,88
840,77	44,37
840,95	73,04
841,12	59,39
841,29	20,48
841,46	32,77
841,64	109,22
841,81	68,27
841,98	17,07
842,16	139,94
842,33	83,97
842,50	36,86
842,67	64,85
842,85	60,76
843,02	44,37
843,19	38,91
843,36	38,91
843,54	106,49
843,71	71,68
843,88	65,53
844,05	32,77
844,23	17,07
844,40	77,82
844,57	15,70
844,74	21,16
844,92	58,71
845,09	56,66
845,26	71,68
845,43	54,61
845,61	75,09
845,78	25,26
845,95	7,51
846,12	38,23
846,29	18,43
846,47	27,31
846,64	50,52
846,81	-4,78
846,98	88,06
847,16	-4,10
847,33	86,01
847,50	28,67
847,67	-8,87
847,84	63,49
848,02	64,17
848,19	51,20
848,36	42,32
848,53	30,04
848,70	49,15
848,88	76,46
849,05	51,88
849,22	8,87
849,39	29,35
849,56	66,22
849,74	-23,21
849,91	16,38
850,08	50,52
850,25	96,94
850,42	29,35
850,60	71,00
850,77	51,88
850,94	27,31
851,11	55,30
851,28	49,15
851,45	55,30
851,63	30,72
851,80	49,83
851,97	138,58
852,14	47,79
852,31	38,91
852,48	3,41
852,66	18,43
852,83	-8,87
853,00	-19,11
853,17	38,91
853,34	23,21
853,51	14,34
853,68	42,32
853,86	-8,19
854,03	50,52
854,20	10,92
854,37	37,55
854,54	50,52
854,71	39,59
854,88	29,35
855,06	-1,37
855,23	-47,79
855,40	29,35
855,57	-8,87
855,74	0,00
855,91	49,15
856,08	32,08
856,25	-25,94
856,43	17,75
856,60	-12,29
856,77	6,83
856,94	-10,24
857,11	82,60
857,28	41,64
857,45	2,05
857,62	-32,08
857,79	30,04
857,97	43,01
858,14	74,41
858,31	52,56
858,48	12,97
858,65	8,87
858,82	56,66
858,99	8,19
859,16	10,24
859,33	62,12
859,50	37,55
859,67	8,87
859,85	34,13
860,02	62,12
860,19	20,48
860,36	-10,24
860,53	-15,70
860,70	-2,05
860,87	43,69
861,04	15,70
861,21	12,97
861,38	44,37
861,55	35,50
861,72	52,56
861,89	71,68
862,06	-6,83
862,23	41,64
862,41	25,94
862,58	-2,05
862,75	3,41
862,92	1,37
863,09	30,72
863,26	23,89
863,43	17,07
863,60	0,00
863,77	26,62
863,94	-17,07
864,11	25,26
864,28	0,68
864,45	22,53
864,62	-11,61
864,79	-51,20
864,96	53,25
865,13	-11,61
865,30	42,32
865,47	0,68
865,64	12,97
865,81	14,34
865,98	-51,20
866,15	21,16
866,32	16,38
866,49	1,37
866,66	-34,13
866,83	15,70
867,00	-4,78
867,17	48,47
867,34	-35,50
867,51	-15,02
867,68	-28,67
867,85	6,83
868,02	12,29
868,19	12,97
868,36	40,96
868,53	23,21
868,70	5,46
868,87	-3,41
869,04	-36,86
869,21	-9,56
869,38	-14,34
869,55	9,56
869,72	8,87
869,89	15,02
870,06	-34,13
870,23	12,29
870,40	-32,77
870,57	29,35
870,74	17,75
870,91	54,61
871,08	-43,69
871,25	32,77
871,42	55,30
871,59	-12,97
871,76	21,85
871,93	30,72
872,10	53,93
872,27	-18,43
872,44	8,19
872,60	30,72
872,77	-5,46
872,94	-48,47
873,11	68,27
873,28	0,68
873,45	20,48
873,62	-30,04
873,79	-23,21
873,96	12,29
874,13	-40,96
874,30	2,05
874,47	8,87
874,64	-19,80
874,81	44,37
874,97	11,61
875,14	-29,35
875,31	-45,06
875,48	-6,83
875,65	-12,29
875,82	0,68
875,99	9,56
876,16	-3,41
876,33	-5,46
876,50	2,05
876,67	-26,62
876,83	-0,68
877,00	23,21
877,17	88,75
877,34	-28,67
877,51	36,18
877,68	1,37
877,85	0,68
878,02	51,20
878,19	-41,64
878,35	15,70
878,52	20,48
878,69	2,05
878,86	-24,58
879,03	-30,72
879,20	-38,23
879,37	8,19
879,54	-49,83
879,70	-49,83
879,87	21,16
880,04	-6,83
880,21	-30,72
880,38	-17,75
880,55	-25,94
880,72	10,24
880,89	-15,70
881,05	17,75
881,22	-8,19
881,39	-24,58
881,56	16,38
881,73	-11,61
881,90	-9,56
882,06	-38,91
882,23	-15,70
882,40	3,41
882,57	27,99
882,74	-19,11
882,91	-30,04
883,07	-45,06
883,24	-4,10
883,41	-0,68
883,58	31,40
883,75	-6,83
883,92	-34,82
884,08	-16,38
884,25	-21,16
884,42	-45,06
884,59	5,46
884,76	-4,78
884,92	20,48
885,09	23,21
885,26	-23,89
885,43	-6,83
885,60	-15,02
885,76	21,16
885,93	-24,58
886,10	-21,85
886,27	-50,52
886,44	12,29
886,60	37,55
886,77	-10,24
886,94	4,10
887,11	66,90
887,28	-12,97
887,44	-36,86
887,61	15,02
887,78	10,24
887,95	-62,80
888,12	-32,77
888,28	6,83
888,45	-51,20
888,62	-6,14
888,79	47,10
888,95	-14,34
889,12	-18,43
889,29	-43,69
889,46	25,94
889,62	-76,46
889,79	-4,78
889,96	-20,48
890,13	-36,86
890,29	-45,74
890,46	-2,05
890,63	3,41
890,80	-55,98
890,96	-12,29
891,13	-27,99
891,30	13,65
891,47	38,23
891,63	-21,85
891,80	-32,77
891,97	-36,18
892,14	-6,83
892,30	26,62
892,47	-54,61
892,64	-53,25
892,80	-8,19
892,97	-19,11
893,14	-42,32
893,31	-22,53
893,47	-19,80
893,64	-62,80
893,81	-23,89
893,97	-26,62
894,14	-40,96
>>>>>End Processed Spectral Data<<<<<
