SpectraSuite Datei
++++++++++++++++++++++++++++++++++++
Datum: Wed Dec 06 16:19:13 CET 2017
Benutzer: Praktikum-Pc1
Dark-Spektrum vorhanden: Ja
Referenz-Spektrum vorhanden: Ja
Zahl der probierten Teilspektren: 1
Spektrometer: USB4H10187
Integrationszeit (usec): 100000 (USB4H10187)
Spektren Durchschnitt berechnet: 3 (USB4H10187)
Boxcar Glättung: 0 (USB4H10187)
Dunkelstromkorrektur: Nein (USB4H10187)
Puls/Lampe aktiviert: Nein (USB4H10187)
Correct for Detector Non-linearity: Nein (USB4H10187)
Streulichtkorrektur: Nein (USB4H10187)
Anzahl Pixel in verarbeitetem Spektrum: 3648
>>>>>Begin Processed Spectral Data<<<<<
176,80	-56,66
177,02	-56,66
177,24	-56,66
177,46	-34,13
177,68	-20,48
177,91	-34,82
178,13	-34,13
178,35	-92,84
178,57	-12,29
178,79	-33,45
179,02	-50,52
179,24	-19,11
179,46	-21,16
179,68	-91,48
179,90	-143,36
180,12	-111,27
180,35	-30,04
180,57	-43,69
180,79	-75,77
181,01	-9,56
181,23	20,48
181,46	-5,46
181,68	-20,48
181,90	-58,71
182,12	-34,82
182,34	-30,04
182,56	-0,68
182,79	-37,55
183,01	-28,67
183,23	-19,11
183,45	-93,52
183,67	15,70
183,89	-6,14
184,12	-43,69
184,34	-55,98
184,56	-33,45
184,78	-49,83
185,00	2,05
185,22	-79,87
185,45	-60,76
185,67	2,05
185,89	8,19
186,11	-1,37
186,33	-38,91
186,55	-79,19
186,77	-49,15
187,00	-5,46
187,22	-35,50
187,44	-78,51
187,66	21,84
187,88	-2,73
188,10	-37,55
188,32	-7,51
188,55	-58,03
188,77	-17,75
188,99	-12,29
189,21	-12,29
189,43	-64,17
189,65	-19,80
189,87	-75,09
190,10	16,38
190,32	-47,79
190,54	-59,39
190,76	-32,08
190,98	-49,83
191,20	-19,11
191,42	-67,58
191,64	-57,34
191,87	-9,56
192,09	-81,92
192,31	-47,79
192,53	-87,38
192,75	-83,97
192,97	-27,99
193,19	-27,31
193,41	-15,70
193,64	-26,62
193,86	-55,30
194,08	-38,91
194,30	-75,77
194,52	-5,46
194,74	5,46
194,96	-5,46
195,18	-55,98
195,40	-35,50
195,63	-51,88
195,85	-41,64
196,07	-54,61
196,29	-18,43
196,51	-43,01
196,73	9,56
196,95	-25,94
197,17	-53,25
197,39	-86,70
197,61	-23,21
197,84	-70,31
198,06	-33,45
198,28	-55,98
198,50	28,67
198,72	2,05
198,94	-21,16
199,16	-90,79
199,38	-66,90
199,60	-71,68
199,82	-74,41
200,04	-18,43
200,26	10,92
200,49	-57,34
200,71	0,68
200,93	-96,25
201,15	-74,41
201,37	11,61
201,59	-39,59
201,81	-51,20
202,03	-75,09
202,25	-62,80
202,47	-90,11
202,69	-47,79
202,91	-43,01
203,13	-62,80
203,35	-126,29
203,58	-82,60
203,80	-28,67
204,02	-38,91
204,24	-38,23
204,46	-29,35
204,68	-69,63
204,90	-75,09
205,12	-24,58
205,34	-58,71
205,56	-53,93
205,78	-28,67
206,00	-37,55
206,22	-52,56
206,44	-78,51
206,66	-48,47
206,88	-59,39
207,10	5,46
207,32	-13,65
207,54	-18,43
207,76	-65,53
207,99	-70,31
208,21	20,48
208,43	-66,90
208,65	-33,45
208,87	-0,68
209,09	-36,86
209,31	-20,48
209,53	-40,28
209,75	-60,76
209,97	-99,67
210,19	-47,79
210,41	-43,01
210,63	-90,79
210,85	-41,64
211,07	-84,65
211,29	-45,74
211,51	-65,54
211,73	-23,21
211,95	-31,40
212,17	-49,83
212,39	-10,24
212,61	-15,70
212,83	-62,80
213,05	-25,26
213,27	-47,10
213,49	-37,55
213,71	-13,65
213,93	-25,94
214,15	-75,09
214,37	3,41
214,59	-38,91
214,81	-55,30
215,03	-46,42
215,25	-45,74
215,47	-70,31
215,69	-64,17
215,91	-29,35
216,13	13,65
216,35	-50,52
216,57	-34,13
216,79	-54,61
217,01	-42,32
217,23	-47,10
217,45	-13,65
217,67	-0,68
217,89	-109,91
218,11	-48,47
218,33	-10,92
218,55	-23,21
218,77	12,29
218,99	-17,75
219,21	-40,28
219,43	-32,08
219,65	-14,34
219,87	-50,52
220,09	-34,13
220,31	-63,49
220,53	-19,11
220,75	-40,28
220,97	-77,82
221,19	-20,48
221,41	-25,94
221,63	-34,13
221,85	7,51
222,06	-45,74
222,28	-40,96
222,50	-53,25
222,72	0,00
222,94	-66,90
223,16	-53,25
223,38	-17,75
223,60	-40,28
223,82	-34,13
224,04	-55,30
224,26	-51,20
224,48	-8,19
224,70	-27,31
224,92	-79,87
225,14	-55,30
225,36	-38,23
225,58	6,83
225,80	-47,79
226,02	-8,19
226,24	-44,37
226,45	-68,95
226,67	0,00
226,89	11,61
227,11	-49,15
227,33	-37,55
227,55	24,58
227,77	-36,86
227,99	-43,01
228,21	-19,11
228,43	-45,06
228,65	-51,20
228,87	-18,43
229,09	-77,82
229,31	-41,64
229,52	-63,49
229,74	2,05
229,96	-21,84
230,18	-27,99
230,40	-48,47
230,62	-33,45
230,84	-32,77
231,06	-27,31
231,28	34,82
231,50	-49,15
231,72	-27,99
231,94	-30,72
232,15	-67,58
232,37	-64,85
232,59	-49,15
232,81	-47,10
233,03	-13,65
233,25	-34,82
233,47	-69,63
233,69	-40,28
233,91	-43,01
234,13	-49,15
234,34	-48,47
234,56	-32,08
234,78	6,83
235,00	10,24
235,22	-21,16
235,44	-38,23
235,66	18,43
235,88	-55,30
236,10	-85,33
236,31	-73,04
236,53	-55,30
236,75	-25,94
236,97	-38,23
237,19	0,68
237,41	-10,92
237,63	-39,59
237,85	-51,20
238,07	-68,95
238,28	-30,04
238,50	-77,82
238,72	-17,07
238,94	-82,60
239,16	-38,91
239,38	-40,28
239,60	-68,27
239,81	9,56
240,03	-59,39
240,25	-7,51
240,47	-45,74
240,69	-26,62
240,91	-51,20
241,13	-15,02
241,34	-49,15
241,56	-54,61
241,78	-54,61
242,00	-58,03
242,22	-36,18
242,44	-43,01
242,66	-34,82
242,87	-49,83
243,09	-25,26
243,31	-30,72
243,53	-48,47
243,75	10,92
243,97	4,10
244,19	-2,05
244,40	-5,46
244,62	-52,56
244,84	3,41
245,06	-29,35
245,28	-81,92
245,50	-22,53
245,71	-74,41
245,93	-29,35
246,15	-31,40
246,37	-32,77
246,59	-107,18
246,81	-55,30
247,02	-20,48
247,24	-50,52
247,46	22,53
247,68	-98,30
247,90	-61,44
248,11	-28,67
248,33	-13,65
248,55	1,37
248,77	-6,83
248,99	-11,61
249,21	-52,56
249,42	-8,19
249,64	8,19
249,86	-40,28
250,08	18,43
250,30	-17,07
250,51	-11,61
250,73	8,19
250,95	-64,85
251,17	-64,17
251,39	-42,32
251,60	-25,94
251,82	-58,03
252,04	-61,44
252,26	-45,74
252,48	-35,50
252,69	-66,90
252,91	-66,22
253,13	-15,70
253,35	6,83
253,57	-27,99
253,78	-46,42
254,00	-22,53
254,22	-48,47
254,44	-83,97
254,65	-27,99
254,87	-45,74
255,09	-10,24
255,31	-30,72
255,53	-17,07
255,74	-32,77
255,96	-96,94
256,18	-68,95
256,40	2,05
256,61	-6,83
256,83	-21,85
257,05	-15,70
257,27	23,89
257,48	-43,69
257,70	-37,55
257,92	23,89
258,14	3,41
258,36	-7,51
258,57	-55,30
258,79	-11,61
259,01	-34,13
259,23	-93,52
259,44	-47,79
259,66	-32,77
259,88	-33,45
260,10	-65,53
260,31	-40,28
260,53	17,07
260,75	-64,17
260,97	-4,78
261,18	-49,83
261,40	-83,97
261,62	-50,52
261,84	-12,29
262,05	22,53
262,27	-22,53
262,49	-75,09
262,71	-19,80
262,92	6,83
263,14	-75,77
263,36	10,24
263,57	-0,00
263,79	-4,78
264,01	-13,65
264,23	-44,37
264,44	-35,50
264,66	-35,50
264,88	-19,80
265,10	-4,10
265,31	-74,41
265,53	-45,06
265,75	-12,97
265,96	-58,71
266,18	-31,40
266,40	-58,71
266,62	-48,47
266,83	-52,56
267,05	-51,88
267,27	-47,79
267,48	-4,10
267,70	-23,21
267,92	-1,37
268,14	-49,83
268,35	-7,51
268,57	-53,93
268,79	-14,34
269,00	-42,32
269,22	-80,55
269,44	-59,39
269,65	-40,28
269,87	-39,59
270,09	0,00
270,31	7,51
270,52	-83,28
270,74	-68,95
270,96	-81,92
271,17	-64,85
271,39	4,10
271,61	-21,16
271,82	0,68
272,04	-79,87
272,26	-34,13
272,47	-31,40
272,69	-11,61
272,91	-68,27
273,12	-43,01
273,34	19,80
273,56	-41,64
273,77	-12,29
273,99	-11,61
274,21	47,79
274,42	-2,05
274,64	-81,92
274,86	-36,18
275,08	-66,22
275,29	0,68
275,51	-129,02
275,72	-10,24
275,94	-46,42
276,16	11,61
276,37	-32,08
276,59	14,34
276,81	-28,67
277,02	2,73
277,24	-46,42
277,46	-43,69
277,67	-51,20
277,89	-43,01
278,11	-25,94
278,32	-70,31
278,54	-18,43
278,76	-67,58
278,97	10,24
279,19	-28,67
279,41	-38,91
279,62	-43,69
279,84	-101,03
280,05	-45,06
280,27	-27,99
280,49	-27,31
280,70	-56,66
280,92	-48,47
281,14	-10,24
281,35	-17,75
281,57	-37,55
281,79	-17,07
282,00	-66,90
282,22	-27,31
282,43	-53,25
282,65	-59,39
282,87	14,34
283,08	-17,07
283,30	-37,55
283,52	-42,32
283,73	-27,31
283,95	-17,07
284,16	-42,32
284,38	-6,14
284,60	-23,21
284,81	-19,11
285,03	-27,31
285,24	28,67
285,46	-51,20
285,68	-4,10
285,89	-63,49
286,11	-32,77
286,32	-41,64
286,54	-17,07
286,76	-15,70
286,97	-44,37
287,19	-47,79
287,40	-72,36
287,62	0,00
287,84	-45,74
288,05	-62,12
288,27	31,40
288,48	-35,50
288,70	-19,80
288,92	-10,92
289,13	-52,56
289,35	-33,45
289,56	41,64
289,78	-88,75
289,99	-30,72
290,21	-32,77
290,43	-73,73
290,64	-79,87
290,86	-83,28
291,07	-53,93
291,29	-7,51
291,51	7,51
291,72	13,65
291,94	23,21
292,15	-32,77
292,37	-57,34
292,58	-16,38
292,80	21,84
293,01	-15,70
293,23	-4,78
293,45	6,83
293,66	-25,94
293,88	-8,19
294,09	27,31
294,31	-62,80
294,52	-45,06
294,74	-14,34
294,96	-77,82
295,17	-3,41
295,39	-46,42
295,60	-13,65
295,82	32,77
296,03	-21,16
296,25	-46,42
296,46	8,19
296,68	-51,20
296,89	-4,78
297,11	-36,86
297,32	-19,80
297,54	-53,93
297,76	21,84
297,97	-60,07
298,19	-35,50
298,40	-15,70
298,62	-65,54
298,83	-20,48
299,05	-64,17
299,26	-32,77
299,48	-1,37
299,69	-25,26
299,91	-15,02
300,12	11,61
300,34	-19,80
300,55	0,00
300,77	-12,97
300,98	-54,61
301,20	-50,52
301,41	-38,23
301,63	-51,20
301,84	-32,08
302,06	-38,23
302,28	-14,34
302,49	-0,68
302,71	-30,72
302,92	-10,92
303,14	-16,38
303,35	20,48
303,57	-50,52
303,78	-3,41
304,00	16,38
304,21	17,75
304,43	1,37
304,64	-50,52
304,86	-25,26
305,07	-53,25
305,29	-55,30
305,50	-1,37
305,71	-27,99
305,93	-28,67
306,14	-45,74
306,36	-15,02
306,57	43,01
306,79	-28,67
307,00	-53,93
307,22	-66,90
307,43	-24,58
307,65	-32,77
307,86	21,84
308,08	-49,15
308,29	-36,18
308,51	-32,77
308,72	-21,16
308,94	-12,29
309,15	-4,78
309,37	-26,62
309,58	23,21
309,80	-26,62
310,01	-69,63
310,22	-34,82
310,44	-44,37
310,65	-50,52
310,87	-12,97
311,08	-6,83
311,30	-45,06
311,51	20,48
311,73	-6,14
311,94	6,83
312,16	5,46
312,37	-40,96
312,58	24,58
312,80	45,06
313,01	0,68
313,23	34,13
313,44	10,92
313,66	31,40
313,87	-21,16
314,09	-45,06
314,30	33,45
314,51	2,05
314,73	20,48
314,94	25,94
315,16	-2,05
315,37	44,37
315,59	10,92
315,80	27,31
316,01	7,51
316,23	25,94
316,44	79,87
316,66	99,67
316,87	55,30
317,09	101,72
317,30	103,76
317,51	54,61
317,73	92,16
317,94	56,66
318,16	115,37
318,37	63,49
318,58	144,72
318,80	103,08
319,01	161,79
319,23	36,18
319,44	98,30
319,66	101,03
319,87	100,35
320,08	116,05
320,30	125,61
320,51	152,91
320,73	155,65
320,94	208,89
321,15	208,21
321,37	264,19
321,58	138,58
321,80	225,28
322,01	223,91
322,22	183,63
322,44	171,35
322,65	235,52
322,86	159,74
323,08	152,91
323,29	249,17
323,51	210,94
323,72	234,83
323,93	329,72
324,15	311,97
324,36	298,32
324,58	329,04
324,79	267,60
325,00	269,65
325,22	297,64
325,43	354,98
325,64	374,78
325,86	408,23
326,07	505,17
326,28	499,02
326,50	459,43
326,71	540,66
326,93	588,45
327,14	516,09
327,35	564,56
327,57	481,96
327,78	499,70
327,99	499,02
328,21	524,28
328,42	578,21
328,63	565,24
328,85	631,46
329,06	715,42
329,27	761,84
329,49	762,53
329,70	829,43
329,91	715,42
330,13	755,02
330,34	692,90
330,56	655,35
330,77	675,15
330,98	713,38
331,20	697,67
331,41	666,96
331,62	699,04
331,84	774,13
332,05	813,04
332,26	739,32
332,48	759,80
332,69	851,27
332,90	776,18
333,11	786,42
333,33	786,42
333,54	829,43
333,75	812,36
333,97	752,29
334,18	789,15
334,39	811,00
334,61	797,34
334,82	793,93
335,03	918,17
335,25	918,86
335,46	948,89
335,67	885,41
335,89	891,55
336,10	762,53
336,31	793,93
336,53	747,51
336,74	740,68
336,95	681,29
337,16	769,35
337,38	733,17
337,59	739,32
337,80	834,21
338,02	825,33
338,23	866,97
338,44	925,68
338,65	884,04
338,87	991,22
339,08	911,35
339,29	920,90
339,51	998,04
339,72	1083,38
339,93	1071,77
340,14	1023,30
340,36	1066,31
340,57	1078,60
340,78	1087,47
341,00	1017,84
341,21	1039,69
341,42	1073,14
341,63	1112,73
341,85	1021,25
342,06	1029,45
342,27	1131,84
342,49	1118,87
342,70	1224,00
342,91	1165,98
343,12	1148,91
343,34	1186,46
343,55	1101,12
343,76	1114,78
343,97	1030,13
344,19	1028,76
344,40	997,36
344,61	996,68
344,82	1035,59
345,04	1022,62
345,25	1037,64
345,46	1045,15
345,67	1047,19
345,89	1133,21
346,10	1114,09
346,31	1084,06
346,52	1132,53
346,74	1143,45
346,95	1157,78
347,16	1170,07
347,37	1149,59
347,59	1112,05
347,80	1084,06
348,01	1079,96
348,22	1113,41
348,43	1124,33
348,65	1131,16
348,86	1104,54
349,07	1137,99
349,28	1073,14
349,50	1206,94
349,71	1159,15
349,92	1183,73
350,13	1243,12
350,34	1299,78
350,56	1302,51
350,77	1256,09
350,98	1279,30
351,19	1339,37
351,41	1370,77
351,62	1204,21
351,83	1230,83
352,04	1196,01
352,25	1201,48
352,47	1205,57
352,68	1196,70
352,89	1200,11
353,10	1265,64
353,31	1348,25
353,53	1333,23
353,74	1298,41
353,95	1435,63
354,16	1404,91
354,37	1428,80
354,59	1435,63
354,80	1486,14
355,01	1391,25
355,22	1427,43
355,43	1478,63
355,65	1359,17
355,86	1297,05
356,07	1327,77
356,28	1320,94
356,49	1242,43
356,70	1217,18
356,92	1175,53
357,13	1170,76
357,34	1110,68
357,55	1101,12
357,76	1039,00
357,98	1003,50
358,19	995,31
358,40	996,68
358,61	1008,28
358,82	1067,67
359,03	1128,43
359,25	1178,26
359,46	1304,56
359,67	1350,98
359,88	1327,77
360,09	1335,96
360,30	1323,67
360,51	1318,21
360,73	1296,36
360,94	1284,76
361,15	1317,53
361,36	1207,62
361,57	1197,38
361,78	1183,04
362,00	1241,75
362,21	1225,37
362,42	1267,69
362,63	1322,99
362,84	1407,64
363,05	1387,16
363,26	1404,91
363,48	1361,22
363,69	1408,32
363,90	1387,84
364,11	1381,01
364,32	1464,30
364,53	1361,90
364,74	1398,76
364,95	1529,83
365,17	1413,10
365,38	1486,14
365,59	1557,82
365,80	1673,87
366,01	1655,44
366,22	1647,93
366,43	1831,57
366,64	1740,09
366,86	1787,19
367,07	1705,28
367,28	1626,09
367,49	1634,96
367,70	1708,01
367,91	1696,40
368,12	1594,69
368,33	1635,64
368,54	1575,57
368,76	1559,19
368,97	1617,21
369,18	1663,63
369,39	1718,93
369,60	1753,06
369,81	1715,52
370,02	1710,74
370,23	1733,95
370,44	1689,57
370,65	1722,34
370,87	1619,94
371,08	1707,32
371,29	1643,84
371,50	1576,94
371,71	1701,18
371,92	1582,40
372,13	1645,20
372,34	1595,37
372,55	1478,63
372,76	1443,82
372,97	1459,52
373,18	1426,75
373,40	1363,95
373,61	1356,44
373,82	1361,22
374,03	1353,71
374,24	1298,41
374,45	1260,18
374,66	1267,01
374,87	1320,94
375,08	1447,23
375,29	1353,02
375,50	1401,49
375,71	1494,33
375,92	1477,27
376,13	1579,67
376,34	1544,85
376,56	1480,00
376,77	1523,69
376,98	1550,31
377,19	1684,11
377,40	1725,75
377,61	1833,61
377,82	1767,40
378,03	1853,41
378,24	1908,02
378,45	1953,08
378,66	1828,84
378,87	1684,80
379,08	1667,73
379,29	1696,40
379,50	1652,71
379,71	1534,61
379,92	1525,05
380,13	1566,01
380,34	1525,74
380,55	1675,24
380,76	1587,18
380,97	1688,89
381,18	1638,37
381,39	1578,98
381,60	1540,76
381,81	1400,13
382,02	1385,79
382,24	1262,91
382,45	1198,06
382,66	1121,60
382,87	1146,18
383,08	1111,36
383,29	1068,36
383,50	967,32
383,71	1049,93
383,92	1102,49
384,13	1170,07
384,34	1097,71
384,55	1284,08
384,76	1415,83
384,97	1381,01
385,18	1447,23
385,39	1449,96
385,60	1376,92
385,81	1421,97
386,02	1368,04
386,23	1404,91
386,44	1457,47
386,65	1402,86
386,86	1474,54
387,07	1428,80
387,28	1460,20
387,49	1449,96
387,70	1454,06
387,91	1465,66
388,12	1456,79
388,32	1411,05
388,53	1478,63
388,74	1374,87
388,95	1466,35
389,16	1559,19
389,37	1640,42
389,58	1611,75
389,79	1710,05
390,00	1735,99
390,21	1768,08
390,42	1789,92
390,63	1826,11
390,84	1819,28
391,05	1874,57
391,26	1861,60
391,47	1871,84
391,68	1862,29
391,89	1735,31
392,10	1745,55
392,31	1633,60
392,52	1531,88
392,73	1416,51
392,94	1230,83
393,15	1144,13
393,36	1051,97
393,57	1009,65
393,78	996,68
393,98	1155,05
394,19	1231,51
394,40	1273,15
394,61	1410,37
394,82	1546,90
395,03	1671,14
395,24	1741,46
395,45	1740,77
395,66	1789,92
395,87	1714,83
396,08	1555,09
396,29	1560,55
396,50	1342,78
396,71	1278,62
396,92	1204,21
397,12	1202,16
397,33	1216,49
397,54	1412,42
397,75	1509,35
397,96	1670,46
398,17	1787,19
398,38	1944,89
398,59	2092,34
398,80	2110,09
399,01	2310,11
399,22	2316,94
399,43	2326,49
399,63	2385,88
399,84	2408,41
400,05	2412,51
400,26	2353,80
400,47	2466,44
400,68	2445,27
400,89	2461,66
401,10	2453,47
401,31	2481,46
401,52	2437,77
401,72	2518,32
401,93	2570,88
402,14	2599,56
402,35	2541,53
402,56	2637,10
402,77	2492,38
402,98	2511,49
403,19	2573,61
403,40	2426,16
403,60	2519,00
403,81	2485,55
404,02	2467,12
404,23	2516,27
404,44	2482,14
404,65	2442,54
404,86	2476,68
405,07	2445,96
405,27	2439,81
405,48	2475,31
405,69	2390,66
405,90	2425,48
406,11	2440,50
406,32	2405,00
406,53	2364,04
406,74	2405,00
406,94	2344,24
407,15	2501,94
407,36	2455,51
407,57	2424,11
407,78	2460,98
407,99	2405,00
408,20	2525,15
408,40	2609,79
408,61	2659,63
408,82	2647,34
409,03	2575,66
409,24	2529,24
409,45	2553,13
409,65	2549,04
409,86	2513,54
410,07	2493,74
410,28	2410,46
410,49	2420,02
410,70	2345,61
410,90	2459,61
411,11	2605,70
411,32	2560,64
411,53	2584,54
411,74	2628,91
411,95	2775,68
412,15	2723,12
412,36	2766,81
412,57	2762,71
412,78	2744,28
412,99	2671,92
413,20	2669,87
413,40	2637,78
413,61	2677,38
413,82	2720,39
414,03	2718,34
414,24	2675,33
414,44	2695,13
414,65	2751,10
414,86	2758,61
415,07	2613,21
415,28	2690,35
415,48	2717,65
415,69	2673,96
415,90	2753,15
416,11	2804,35
416,32	2787,29
416,53	2749,06
416,73	2813,91
416,94	2691,03
417,15	2750,42
417,36	2699,22
417,56	2606,38
417,77	2621,40
417,98	2630,96
418,19	2590,00
418,40	2627,54
418,60	2629,59
418,81	2678,06
419,02	2590,00
419,23	2737,45
419,44	2519,00
419,64	2645,98
419,85	2616,62
420,06	2461,66
420,27	2679,43
420,47	2647,34
420,68	2672,60
420,89	2653,48
421,10	2740,86
421,30	2777,05
421,51	2784,55
421,72	2768,85
421,93	2759,30
422,14	2562,01
422,34	2634,37
422,55	2517,64
422,76	2632,32
422,97	2546,99
423,17	2583,85
423,38	2564,74
423,59	2529,24
423,80	2492,38
424,00	2512,18
424,21	2499,89
424,42	2570,88
424,63	2568,15
424,83	2492,38
425,04	2586,58
425,25	2490,33
425,46	2618,67
425,66	2550,40
425,87	2583,85
426,08	2486,92
426,28	2636,42
426,49	2531,29
426,70	2614,57
426,91	2551,77
427,11	2534,70
427,32	2395,44
427,53	2495,11
427,74	2569,52
427,94	2441,86
428,15	2475,31
428,36	2486,23
428,56	2441,18
428,77	2510,81
428,98	2439,81
429,19	2371,55
429,39	2214,54
429,60	2386,57
429,81	2236,38
430,01	2133,98
430,22	2071,18
430,43	1977,66
430,64	1955,13
430,84	1931,23
431,05	2084,15
431,26	2139,44
431,46	2218,63
431,67	2389,30
431,88	2493,06
432,08	2546,31
432,29	2633,01
432,50	2572,25
432,70	2685,57
432,91	2658,26
433,12	2707,41
433,33	2706,73
433,53	2659,63
433,74	2640,51
433,95	2656,90
434,15	2516,27
434,36	2618,67
434,57	2559,96
434,77	2549,04
434,98	2711,51
435,19	2633,01
435,39	2780,46
435,60	2790,02
435,81	2841,22
436,01	2940,88
436,22	2896,51
436,43	2919,04
436,63	3082,19
436,84	3073,32
437,05	2975,02
437,25	2976,38
437,46	2952,49
437,67	2927,91
437,87	2844,63
438,08	2800,94
438,29	2774,31
438,49	2744,96
438,70	2667,82
438,91	2744,96
439,11	2788,65
439,32	2879,44
439,52	2751,79
439,73	2751,79
439,94	2829,61
440,14	2938,84
440,35	2876,71
440,56	2795,48
440,76	2880,13
440,97	2930,64
441,18	3011,20
441,38	3041,92
441,59	3061,03
441,79	3169,57
442,00	3160,70
442,21	3142,27
442,41	3153,87
442,62	3107,45
442,83	3117,01
443,03	3121,10
443,24	3091,75
443,44	3056,93
443,65	3196,88
443,86	3094,48
444,06	3138,17
444,27	3205,07
444,48	3157,29
444,68	3127,25
444,89	3091,75
445,09	3177,08
445,30	3018,02
445,51	3035,77
445,71	3061,71
445,92	3057,62
446,12	2986,62
446,33	3068,54
446,54	3045,33
446,74	3082,88
446,95	3014,61
447,15	3108,13
447,36	3165,48
447,57	3140,22
447,77	3204,39
447,98	3228,96
448,18	3203,71
448,39	3078,10
448,59	3244,67
448,80	3147,05
449,01	3153,19
449,21	3151,82
449,42	3182,54
449,62	3207,80
449,83	3261,73
450,04	3261,05
450,24	3365,50
450,45	3429,67
450,65	3372,32
450,86	3409,19
451,06	3408,50
451,27	3501,34
451,47	3393,48
451,68	3381,20
451,89	3362,08
452,09	3334,78
452,30	3227,60
452,50	3220,77
452,71	3241,25
452,91	3145,68
453,12	3112,23
453,33	3082,19
453,53	3065,13
453,74	3167,53
453,94	3241,25
454,15	3058,30
454,35	3138,85
454,56	3188,00
454,76	3300,64
454,97	3121,10
455,17	3138,85
455,38	3200,29
455,58	3250,81
455,79	3176,40
456,00	3287,67
456,20	3353,89
456,41	3286,31
456,61	3183,91
456,82	3193,47
457,02	3377,78
457,23	3265,14
457,43	3362,08
457,64	3303,37
457,84	3323,85
458,05	3193,47
458,25	3207,12
458,46	3201,66
458,66	3187,32
458,87	3211,90
459,07	3249,44
459,28	3101,99
459,48	3080,83
459,69	3293,82
459,89	3114,28
460,10	3192,10
460,30	3288,36
460,51	3254,22
460,71	3270,61
460,92	3328,63
461,12	3333,41
461,33	3439,90
461,53	3312,93
461,74	3390,07
461,94	3330,00
462,15	3404,41
462,35	3493,83
462,56	3357,30
462,76	3357,99
462,97	3440,59
463,17	3434,44
463,38	3336,14
463,58	3330,00
463,79	3487,01
463,99	3487,01
464,20	3405,77
464,40	3327,27
464,61	3398,95
464,81	3389,39
465,02	3394,17
465,22	3323,85
465,43	3477,45
465,63	3399,63
465,83	3489,06
466,04	3499,98
466,24	3494,52
466,45	3508,17
466,65	3428,30
466,86	3423,52
467,06	3356,62
467,27	3517,73
467,47	3616,03
467,68	3517,73
467,88	3480,86
468,08	3560,05
468,29	3497,93
468,49	3635,83
468,70	3633,78
468,90	3581,21
469,11	3641,97
469,31	3779,19
469,52	3715,02
469,72	3928,69
469,92	3609,89
470,13	3695,22
470,33	3590,77
470,54	3560,74
470,74	3639,92
470,95	3684,98
471,15	3697,95
471,35	3732,76
471,56	3825,61
471,76	3887,04
471,97	3885,68
472,17	3951,21
472,38	4040,64
472,58	4088,43
472,78	4025,62
472,99	4046,79
473,19	3989,44
473,40	4145,77
473,60	4043,37
473,80	4120,51
474,01	4119,83
474,21	4263,19
474,42	4160,11
474,62	4242,71
474,83	4173,76
475,03	4291,18
475,23	4272,06
475,44	4270,01
475,64	4308,24
475,85	4244,76
476,05	4169,66
476,25	4364,22
476,46	4252,27
476,66	4265,92
476,86	4418,83
477,07	4287,08
477,27	4545,81
477,48	4512,36
477,68	4523,96
477,88	4641,38
478,09	4560,83
478,29	4603,15
478,50	4618,17
478,70	4635,92
478,90	4648,89
479,11	4622,27
479,31	4752,65
479,51	4775,18
479,72	4747,87
479,92	4875,53
480,12	4854,37
480,33	4814,77
480,53	4917,86
480,74	4890,55
480,94	4958,82
481,14	4943,11
481,35	5042,78
481,55	4973,15
481,75	5048,24
481,96	5166,34
482,16	5171,80
482,36	5234,61
482,57	5113,78
482,77	5065,99
482,97	5250,31
483,18	5230,51
483,38	5205,25
483,58	5285,12
483,79	5230,51
483,99	5278,30
484,19	5235,29
484,40	5365,68
484,60	5180,00
484,80	5247,58
485,01	5291,27
485,21	5235,97
485,41	5062,58
485,62	4977,93
485,82	4872,80
486,02	4779,28
486,23	4639,33
486,43	4613,39
486,63	4723,30
486,84	4711,01
487,04	4963,59
487,24	4988,17
487,45	5010,70
487,65	5164,98
487,85	5204,57
488,06	5261,23
488,26	5303,56
488,46	5338,37
488,67	5307,65
488,87	5316,53
489,07	5341,79
489,27	5328,81
489,48	5500,84
489,68	5470,81
489,88	5647,62
490,09	5757,52
490,29	5775,27
490,49	5838,08
490,70	5750,70
490,90	5636,01
491,10	5700,18
491,30	5755,47
491,51	5595,05
491,71	5621,67
491,91	5496,75
492,12	5560,92
492,32	5481,73
492,52	5620,31
492,72	5605,29
492,93	5663,32
493,13	5622,36
493,33	5784,83
493,53	5634,64
493,74	5746,60
493,94	5773,91
494,14	5735,68
494,34	5814,18
494,55	5788,24
494,75	5873,57
494,95	5767,08
495,16	5870,84
495,36	5938,43
495,56	5723,39
495,76	5711,10
495,97	5758,21
496,17	5791,66
496,37	5703,59
496,57	5876,30
496,78	5810,77
496,98	5757,52
497,18	5808,72
497,38	5810,09
497,59	5842,17
497,79	5735,00
497,99	5700,86
498,19	5716,56
498,39	5505,62
498,60	5666,05
498,80	5615,53
499,00	5539,07
499,20	5543,17
499,41	5678,33
499,61	5573,89
499,81	5651,71
500,01	5543,17
500,22	5519,28
500,42	5425,75
500,62	5356,12
500,82	5378,65
501,02	5339,05
501,23	5194,33
501,43	5227,78
501,63	5155,42
501,83	5136,31
502,03	5061,90
502,24	5019,57
502,44	5122,65
502,64	5183,41
502,84	5172,49
503,05	5252,36
503,25	5220,96
503,45	5241,43
503,65	5124,70
503,85	5054,39
504,06	5084,42
504,26	5063,26
504,46	5085,79
504,66	4993,63
504,86	5106,95
505,06	5106,27
505,27	5093,30
505,47	5149,28
505,67	5134,94
505,87	5229,15
506,07	5242,12
506,28	5317,89
506,48	5275,57
506,68	5305,60
506,88	5214,13
507,08	5221,64
507,28	5216,86
507,49	5191,60
507,69	5180,68
507,89	5068,72
508,09	5135,62
508,29	5135,62
508,49	5070,09
508,70	5213,45
508,90	5230,51
509,10	5227,78
509,30	5207,30
509,50	5244,85
509,70	5233,24
509,91	5255,77
510,11	5242,80
510,31	5282,39
510,51	5210,72
510,71	5232,56
510,91	5195,01
511,11	5303,56
511,32	5221,64
511,52	5233,93
511,72	5367,73
511,92	5368,41
512,12	5380,70
512,32	5245,53
512,52	5314,48
512,73	5288,54
512,93	5143,81
513,13	5151,32
513,33	5217,54
513,53	5203,89
513,73	5148,59
513,93	5102,17
514,13	5010,70
514,34	5072,14
514,54	5026,40
514,74	5063,26
514,94	4965,64
515,14	5086,47
515,34	5190,24
515,54	5050,29
515,74	5063,26
515,94	5214,81
516,15	5104,22
516,35	4979,98
516,55	4806,58
516,75	4738,32
516,95	4695,31
517,15	4558,78
517,35	4523,96
517,55	4599,06
517,75	4659,81
517,95	4601,79
518,16	4621,58
518,36	4600,42
518,56	4635,24
518,76	4582,67
518,96	4713,74
519,16	4672,10
519,36	4949,94
519,56	4854,37
519,76	4943,80
519,96	4936,97
520,16	4902,15
520,37	4977,93
520,57	4995,00
520,77	5013,43
520,97	4961,55
521,17	5114,46
521,37	5004,55
521,57	4997,04
521,77	5098,08
521,97	5080,33
522,17	4977,93
522,37	5102,17
522,57	4975,20
522,77	4932,19
522,97	4934,24
523,17	4945,84
523,37	4896,69
523,58	4967,01
523,78	5035,27
523,98	5137,67
524,18	4971,79
524,38	5110,36
524,58	5086,47
524,78	5010,70
524,98	5132,89
525,18	5012,74
525,38	5005,24
525,58	4822,97
525,78	4960,86
525,98	4874,17
526,18	4821,60
526,38	4677,56
526,58	4594,28
526,78	4537,62
526,98	4618,85
527,18	4475,49
527,38	4577,89
527,58	4504,17
527,78	4521,23
527,98	4590,86
528,18	4561,51
528,38	4696,68
528,58	4688,48
528,78	4788,83
528,98	4732,17
529,18	4847,54
529,38	4810,68
529,58	4650,25
529,78	4734,22
529,98	4706,91
530,18	4742,41
530,38	4690,53
530,58	4687,80
530,78	4824,33
530,98	4768,35
531,18	4688,48
531,38	4821,60
531,58	4704,18
531,78	4643,43
531,98	4621,58
532,18	4577,21
532,38	4571,07
532,58	4473,45
532,78	4443,41
532,98	4403,82
533,18	4480,27
533,38	4420,20
533,58	4536,93
533,78	4480,96
533,98	4526,01
534,18	4490,51
534,38	4349,20
534,58	4523,96
534,78	4541,71
534,98	4547,17
535,18	4599,06
535,38	4654,35
535,58	4632,51
535,78	4581,31
535,98	4657,08
536,18	4631,14
536,38	4595,64
536,58	4687,80
536,78	4523,28
536,98	4523,96
537,18	4448,87
537,38	4416,79
537,58	4474,81
537,78	4513,04
537,98	4503,48
538,17	4520,55
538,37	4460,48
538,57	4464,57
538,77	4493,93
538,97	4498,02
539,17	4450,92
539,37	4465,25
539,57	4336,92
539,77	4389,48
539,97	4296,64
540,17	4351,25
540,37	4173,76
540,57	4164,20
540,77	4195,61
540,97	4194,92
541,16	4233,15
541,36	4199,02
541,56	4192,87
541,76	4190,14
541,96	4222,23
542,16	4197,65
542,36	4148,50
542,56	4107,54
542,76	4211,99
542,96	4255,00
543,16	4131,44
543,36	4196,29
543,55	4171,03
543,75	4196,29
543,95	4132,80
544,15	4173,08
544,35	4130,75
544,55	4184,68
544,75	4146,45
544,95	4151,23
545,15	4070,68
545,35	4120,51
545,54	4125,29
545,74	4111,64
545,94	3975,11
546,14	4171,71
546,34	4146,45
546,54	4125,29
546,74	4057,03
546,94	4034,50
547,14	4044,74
547,33	3994,90
547,53	4021,53
547,73	3948,48
547,93	3951,21
548,13	3862,47
548,33	3963,50
548,53	3936,88
548,72	3952,58
548,92	3985,35
549,12	3917,08
549,32	3966,23
549,52	4004,46
549,72	3944,39
549,92	3934,15
550,12	3842,67
550,31	3874,07
550,51	3849,50
550,71	3874,76
550,91	3962,14
551,11	3846,09
551,31	3930,73
551,50	3833,11
551,70	3855,64
551,90	3916,40
552,10	3818,78
552,30	3792,16
552,50	3805,13
552,70	3909,57
552,89	3737,54
553,09	3774,41
553,29	3800,35
553,49	3788,74
553,69	3822,19
553,88	3769,63
554,08	3796,93
554,28	3753,93
554,48	3775,77
554,68	3795,57
554,88	3775,09
555,07	3855,64
555,27	3711,60
555,47	3697,27
555,67	3763,48
555,87	3775,77
556,06	3687,71
556,26	3665,86
556,46	3684,30
556,66	3639,24
556,86	3586,68
557,06	3583,26
557,25	3571,66
557,45	3567,56
557,65	3521,82
557,85	3564,83
558,05	3433,08
558,24	3555,96
558,44	3521,82
558,64	3393,48
558,84	3431,71
559,03	3376,42
559,23	3398,95
559,43	3345,02
559,63	3345,70
559,83	3340,92
560,02	3314,30
560,22	3364,81
560,42	3325,22
560,62	3309,52
560,82	3297,23
561,01	3349,11
561,21	3293,82
561,41	3262,41
561,61	3389,39
561,80	3224,19
562,00	3235,79
562,20	3233,06
562,40	3190,05
562,59	3224,87
562,79	3181,86
562,99	3205,07
563,19	3285,62
563,38	3198,24
563,58	3169,57
563,78	3172,99
563,98	3213,26
564,17	3116,33
564,37	3192,78
564,57	3163,43
564,77	3146,36
564,96	3091,75
565,16	3069,91
565,36	3108,13
565,56	3040,55
565,75	2925,18
565,95	3069,91
566,15	3046,01
566,35	2986,62
566,54	2916,31
566,74	2942,25
566,94	2985,94
567,14	3011,88
567,33	3025,53
567,53	2977,06
567,73	2947,71
567,92	2946,34
568,12	2955,90
568,32	2948,39
568,52	2823,47
568,71	2818,69
568,91	2921,09
569,11	2878,08
569,30	2835,75
569,50	2785,92
569,70	2819,37
569,90	2829,61
570,09	2780,46
570,29	2787,97
570,49	2805,72
570,68	2644,61
570,88	2649,39
571,08	2638,47
571,27	2701,95
571,47	2713,56
571,67	2638,47
571,87	2679,43
572,06	2595,46
572,26	2631,64
572,46	2596,14
572,65	2652,80
572,85	2665,77
573,05	2650,75
573,24	2615,26
573,44	2620,72
573,64	2605,02
573,83	2671,23
574,03	2574,30
574,23	2612,53
574,42	2642,56
574,62	2732,67
574,82	2543,58
575,01	2578,39
575,21	2559,28
575,41	2620,72
575,60	2481,46
575,80	2467,12
576,00	2475,99
576,19	2526,51
576,39	2547,67
576,59	2504,67
576,78	2489,65
576,98	2456,88
577,18	2506,71
577,37	2481,46
577,57	2582,49
577,77	2620,03
577,96	2437,77
578,16	2455,51
578,35	2521,05
578,55	2480,77
578,75	2471,22
578,94	2486,92
579,14	2512,86
579,34	2491,70
579,53	2429,57
579,73	2635,74
579,93	2586,58
580,12	2551,77
580,32	2620,03
580,51	2554,50
580,71	2639,83
580,91	2656,22
581,10	2589,32
581,30	2618,67
581,50	2655,53
581,69	2694,44
581,89	2673,28
582,08	2669,19
582,28	2648,02
582,48	2725,16
582,67	2769,54
582,87	2744,28
583,06	2808,45
583,26	2693,76
583,46	2740,18
583,65	2813,23
583,85	2866,47
584,04	2744,96
584,24	2772,95
584,44	2800,26
584,63	2851,46
584,83	2820,05
585,02	2794,79
585,22	2792,75
585,42	2854,19
585,61	2783,87
585,81	2666,46
586,00	2780,46
586,20	2749,74
586,39	2734,72
586,59	2669,19
586,79	2815,96
586,98	2722,43
587,18	2679,43
587,37	2692,40
587,57	2740,18
587,76	2642,56
587,96	2734,04
588,16	2613,89
588,35	2598,19
588,55	2536,07
588,74	2486,23
588,94	2411,82
589,13	2393,39
589,33	2267,10
589,52	2288,95
589,72	2327,18
589,92	2338,10
590,11	2439,81
590,31	2415,92
590,50	2509,44
590,70	2459,61
590,89	2415,92
591,09	2489,65
591,28	2460,98
591,48	2446,64
591,67	2438,45
591,87	2387,93
592,06	2423,43
592,26	2396,12
592,46	2472,58
592,65	2428,89
592,85	2454,83
593,04	2467,80
593,24	2425,48
593,43	2443,91
593,63	2454,15
593,82	2474,63
594,02	2359,26
594,21	2372,23
594,41	2282,12
594,60	2377,69
594,80	2389,30
594,99	2370,87
595,19	2369,50
595,38	2368,13
595,58	2312,84
595,77	2256,18
595,97	2395,44
596,16	2344,92
596,36	2385,20
596,55	2342,19
596,75	2335,37
596,94	2399,54
597,14	2245,26
597,33	2209,76
597,53	2257,54
597,72	2282,12
597,92	2244,57
598,11	2298,50
598,31	2323,08
598,50	2273,93
598,70	2269,83
598,89	2161,97
599,09	2141,49
599,28	2269,83
599,48	2235,70
599,67	2198,15
599,87	2195,42
600,06	2155,83
600,26	2094,39
600,45	2171,53
600,64	2200,20
600,84	2206,34
601,03	2205,66
601,23	2112,82
601,42	2133,98
601,62	2161,29
601,81	2123,06
602,01	2155,15
602,20	2140,13
602,40	2233,65
602,59	2121,70
602,78	2185,87
602,98	2075,28
603,17	2143,54
603,37	2209,08
603,56	2187,91
603,76	2258,91
603,95	2133,98
604,15	2105,31
604,34	2189,96
604,53	2168,80
604,73	2172,89
604,92	2159,92
605,12	2098,49
605,31	2175,63
605,51	2099,85
605,70	2060,94
605,89	2136,03
606,09	2141,49
606,28	2096,44
606,48	2151,05
606,67	2077,32
606,87	2127,84
607,06	2122,38
607,25	2150,37
607,45	2181,09
607,64	2093,02
607,84	2146,95
608,03	2048,65
608,22	2077,32
608,42	2151,73
608,61	2002,91
608,81	2099,17
609,00	2118,96
609,19	2122,38
609,39	2044,56
609,58	2103,26
609,78	2024,76
609,97	2056,84
610,16	2109,41
610,36	2095,07
610,55	2035,00
610,75	2126,47
610,94	2027,49
611,13	2145,59
611,33	2194,74
611,52	2095,75
611,71	2110,77
611,91	2135,35
612,10	2094,39
612,30	2097,80
612,49	2097,12
612,68	2070,50
612,88	2054,11
613,07	2113,50
613,26	2142,18
613,46	2039,09
613,65	2097,80
613,84	2078,69
614,04	2049,33
614,23	2019,30
614,43	2088,25
614,62	2060,26
614,81	2091,66
615,01	2086,20
615,20	2067,77
615,39	2097,80
615,59	2090,98
615,78	2091,66
615,97	2056,16
616,17	2068,45
616,36	2067,08
616,55	2112,14
616,75	2103,26
616,94	2098,49
617,13	2083,47
617,33	2079,37
617,52	2110,09
617,71	2105,99
617,91	2086,88
618,10	2063,67
618,29	2135,35
618,49	2103,95
618,68	2115,55
618,87	2054,80
619,07	2119,65
619,26	2144,91
619,45	2123,74
619,65	2180,40
619,84	2146,27
620,03	2185,87
620,22	2188,60
620,42	2101,90
620,61	2179,04
620,80	2197,47
621,00	2179,04
621,19	2179,04
621,38	2155,83
621,58	2122,38
621,77	2085,51
621,96	2143,54
622,15	2125,11
622,35	2096,44
622,54	2077,32
622,73	2168,12
622,93	2068,45
623,12	2076,64
623,31	2170,16
623,50	2105,99
623,70	2129,20
623,89	2060,94
624,08	2114,87
624,28	2090,98
624,47	2082,10
624,66	2050,70
624,85	2090,98
625,05	2093,71
625,24	2061,62
625,43	2115,55
625,62	1999,50
625,82	2097,12
626,01	2049,33
626,20	2032,95
626,39	2099,85
626,59	2007,01
626,78	2069,13
626,97	2060,94
627,17	2060,26
627,36	1973,56
627,55	1970,15
627,74	1898,47
627,93	1928,50
628,13	1888,91
628,32	1884,13
628,51	1895,05
628,70	1930,55
628,90	1864,33
629,09	1856,14
629,28	1896,42
629,47	1895,74
629,67	1877,30
629,86	1853,41
630,05	1914,17
630,24	1876,62
630,44	1960,59
630,63	1927,14
630,82	1941,47
631,01	2004,96
631,20	1956,49
631,40	1971,51
631,59	1927,14
631,78	1888,23
631,97	2040,46
632,16	1968,10
632,36	2050,02
632,55	2041,82
632,74	2066,40
632,93	2015,20
633,13	2007,69
633,32	2058,21
633,51	2054,11
633,70	1990,63
633,89	2093,02
634,09	2064,35
634,28	2073,23
634,47	2050,70
634,66	2116,23
634,85	2099,85
635,04	2095,75
635,24	2144,22
635,43	2052,75
635,62	2137,40
635,81	2114,87
636,00	2105,99
636,20	2123,06
636,39	2096,44
636,58	2116,23
636,77	2142,18
636,96	2158,56
637,15	2138,76
637,35	2157,88
637,54	2153,78
637,73	2173,58
637,92	2245,26
638,11	2146,27
638,30	2243,89
638,50	2214,54
638,69	2170,16
638,88	2199,52
639,07	2233,65
639,26	2226,14
639,45	2155,83
639,64	2216,58
639,84	2232,29
640,03	2189,28
640,22	2153,78
640,41	2197,47
640,60	2137,40
640,79	2192,01
640,98	2155,83
641,18	2225,46
641,37	2151,73
641,56	2175,63
641,75	2209,76
641,94	2081,42
642,13	2222,73
642,32	2145,59
642,52	2199,52
642,71	2194,74
642,90	2195,42
643,09	2185,87
643,28	2128,52
643,47	2239,80
643,66	2210,44
643,85	2214,54
644,04	2213,85
644,24	2214,54
644,43	2196,79
644,62	2133,98
644,81	2172,89
645,00	2131,25
645,19	2169,48
645,38	2084,15
645,57	2054,11
645,76	2188,60
645,96	2139,44
646,15	2135,35
646,34	2006,33
646,53	2112,82
646,72	2045,24
646,91	2086,88
647,10	1937,38
647,29	2052,75
647,48	2061,62
647,67	1987,90
647,86	1966,05
648,05	1929,19
648,25	1981,75
648,44	2002,23
648,63	1979,70
648,82	1964,68
649,01	2024,08
649,20	2000,87
649,39	1969,46
649,58	1938,06
649,77	1983,80
649,96	1964,68
650,15	1991,31
650,34	1990,63
650,53	2057,53
650,72	1983,12
650,91	2000,18
651,11	2019,30
651,30	1998,82
651,49	1946,94
651,68	1957,86
651,87	1970,83
652,06	1930,55
652,25	2001,55
652,44	1958,54
652,63	1965,37
652,82	1989,26
653,01	2047,97
653,20	1971,51
653,39	2041,82
653,58	1965,37
653,77	2019,98
653,96	2011,11
654,15	2043,87
654,34	2011,79
654,53	1964,00
654,72	1990,63
654,91	1914,17
655,10	1903,25
655,29	1934,65
655,48	1843,17
655,67	1836,35
655,86	1684,11
656,05	1751,70
656,24	1727,80
656,43	1643,15
656,62	1666,36
656,81	1759,89
657,00	1675,92
657,19	1663,63
657,38	1801,53
657,57	1803,58
657,76	1835,66
657,95	1842,49
658,14	1842,49
658,33	1888,91
658,52	1863,65
658,71	1916,90
658,90	1899,83
659,09	1914,17
659,28	1959,91
659,47	1891,64
659,66	1941,47
659,85	1943,52
660,04	1912,12
660,23	1929,87
660,42	1877,30
660,61	1963,32
660,80	1934,65
660,99	1928,50
661,18	1895,74
661,37	1942,16
661,56	1936,01
661,75	1900,51
661,94	1935,33
662,13	1955,13
662,32	1920,99
662,51	1899,83
662,70	2043,19
662,89	1921,68
663,08	1863,65
663,27	1910,75
663,46	1932,60
663,65	1878,67
663,83	1940,11
664,02	1879,35
664,21	1859,56
664,40	1837,71
664,59	1873,21
664,78	1946,25
664,97	1939,43
665,16	1866,38
665,35	1888,91
665,54	1953,08
665,73	1975,61
665,92	1873,21
666,11	1914,85
666,30	1905,29
666,49	1843,85
666,67	1832,25
666,86	1887,54
667,05	1836,35
667,24	1809,04
667,43	1873,21
667,62	1866,38
667,81	1852,73
668,00	1839,76
668,19	1846,59
668,38	1881,40
668,57	1858,87
668,76	1877,30
668,94	1872,53
669,13	1893,69
669,32	1841,81
669,51	1852,73
669,70	1884,13
669,89	1820,64
670,08	1883,45
670,27	1804,26
670,46	1889,59
670,64	1802,90
670,83	1837,03
671,02	1802,90
671,21	1813,13
671,40	1785,83
671,59	1819,96
671,78	1766,03
671,97	1776,95
672,16	1765,35
672,34	1774,22
672,53	1819,96
672,72	1820,64
672,91	1900,51
673,10	1783,78
673,29	1817,91
673,48	1824,06
673,66	1743,50
673,85	1811,09
674,04	1694,35
674,23	1775,59
674,42	1839,08
674,61	1815,87
674,80	1783,10
674,98	1745,55
675,17	1780,37
675,36	1766,71
675,55	1736,68
675,74	1819,96
675,93	1819,28
676,12	1779,00
676,30	1713,47
676,49	1743,50
676,68	1798,80
676,87	1800,85
677,06	1772,86
677,25	1687,53
677,43	1793,34
677,62	1737,36
677,81	1695,72
678,00	1718,93
678,19	1637,01
678,37	1789,24
678,56	1714,83
678,75	1781,05
678,94	1720,98
679,13	1743,50
679,32	1735,31
679,50	1772,86
679,69	1750,33
679,88	1638,38
680,07	1702,54
680,26	1686,84
680,44	1721,66
680,63	1637,01
680,82	1776,95
681,01	1654,76
681,20	1691,62
681,38	1685,48
681,57	1744,19
681,76	1705,28
681,95	1637,69
682,14	1652,71
682,32	1684,80
682,51	1701,86
682,70	1656,81
682,89	1681,38
683,07	1576,25
683,26	1631,55
683,45	1682,75
683,64	1621,99
683,83	1695,04
684,01	1634,28
684,20	1604,24
684,39	1626,77
684,58	1664,32
684,76	1652,03
684,95	1625,40
685,14	1551,68
685,33	1587,18
685,52	1559,19
685,70	1611,07
685,89	1523,01
686,08	1546,90
686,27	1476,59
686,45	1406,95
686,64	1250,63
686,83	1216,49
687,02	1107,95
687,20	1056,07
687,39	929,10
687,58	925,68
687,76	935,24
687,95	890,18
688,14	979,61
688,33	912,03
688,51	941,38
688,70	927,73
688,89	968,01
689,08	915,44
689,26	912,71
689,45	905,88
689,64	873,12
689,83	977,56
690,01	957,08
690,20	1030,81
690,39	1075,87
690,57	1038,32
690,76	1019,89
690,95	1086,79
691,14	1122,97
691,32	1186,46
691,51	1128,43
691,70	1227,42
691,88	1192,60
692,07	1153,69
692,26	1220,59
692,44	1206,94
692,63	1258,82
692,82	1272,47
693,01	1254,04
693,19	1237,66
693,38	1284,08
693,57	1260,18
693,75	1254,04
693,94	1230,15
694,13	1271,79
694,31	1278,62
694,50	1302,51
694,69	1250,63
694,87	1326,40
695,06	1301,83
695,25	1305,24
695,43	1286,81
695,62	1271,11
695,81	1225,37
695,99	1209,67
696,18	1374,87
696,37	1339,37
696,55	1354,39
696,74	1357,12
696,93	1333,23
697,11	1352,34
697,30	1441,77
697,49	1392,62
697,67	1375,55
697,86	1417,19
698,05	1472,49
698,23	1380,33
698,42	1400,13
698,61	1417,88
698,79	1335,28
698,98	1383,06
699,17	1303,19
699,35	1363,95
699,54	1325,04
699,72	1355,76
699,91	1412,42
700,10	1277,93
700,28	1277,25
700,47	1316,16
700,66	1273,15
700,84	1307,97
701,03	1321,62
701,21	1239,02
701,40	1260,18
701,59	1283,39
701,77	1226,73
701,96	1286,81
702,15	1232,88
702,33	1295,68
702,52	1291,59
702,70	1303,19
702,89	1312,07
703,08	1278,62
703,26	1263,60
703,45	1310,02
703,63	1308,65
703,82	1373,50
704,01	1300,46
704,19	1408,32
704,38	1286,81
704,56	1331,86
704,75	1261,55
704,94	1366,00
705,12	1335,28
705,31	1322,99
705,49	1306,60
705,68	1342,78
705,86	1292,27
706,05	1346,20
706,24	1391,94
706,42	1266,33
706,61	1274,52
706,79	1326,40
706,98	1363,95
707,17	1322,99
707,35	1327,77
707,54	1330,50
707,72	1328,45
707,91	1301,14
708,09	1305,24
708,28	1312,75
708,46	1325,04
708,65	1288,17
708,84	1328,45
709,02	1315,48
709,21	1299,78
709,39	1345,52
709,58	1302,51
709,76	1319,57
709,95	1325,04
710,13	1334,59
710,32	1353,71
710,50	1346,88
710,69	1286,81
710,88	1329,13
711,06	1340,74
711,25	1290,22
711,43	1279,98
711,62	1341,42
711,80	1252,67
711,99	1302,51
712,17	1289,54
712,36	1241,75
712,54	1262,23
712,73	1267,69
712,91	1219,91
713,10	1221,95
713,28	1282,71
713,47	1220,59
713,65	1290,90
713,84	1257,45
714,02	1241,75
714,21	1243,12
714,39	1140,04
714,58	1200,79
714,76	1198,06
714,95	1178,95
715,13	1244,48
715,32	1228,10
715,50	1171,44
715,69	1245,85
715,87	1158,47
716,06	1155,05
716,24	1121,60
716,43	1077,91
716,61	1044,46
716,80	1072,45
716,98	988,49
717,17	941,38
717,35	878,58
717,54	881,31
717,72	912,71
717,91	872,43
718,09	830,79
718,28	865,61
718,46	808,95
718,65	782,32
718,83	758,43
719,01	736,59
719,20	734,54
719,38	739,32
719,57	793,93
719,75	703,14
719,94	787,79
720,12	761,16
720,31	688,80
720,49	717,47
720,68	746,83
720,86	738,63
721,04	921,59
721,23	828,06
721,41	879,94
721,60	923,63
721,78	851,27
721,97	953,67
722,15	943,43
722,34	881,99
722,52	917,49
722,70	947,53
722,89	900,42
723,07	843,76
723,26	860,83
723,44	865,61
723,63	828,06
723,81	847,18
723,99	886,09
724,18	811,00
724,36	806,22
724,55	786,42
724,73	775,50
724,91	771,40
725,10	790,52
725,28	828,74
725,47	736,59
725,65	789,15
725,83	771,40
726,02	773,45
726,20	765,94
726,39	755,70
726,57	778,91
726,75	761,16
726,94	767,31
727,12	756,38
727,31	777,55
727,49	775,50
727,67	791,20
727,86	744,10
728,04	774,13
728,23	761,84
728,41	784,37
728,59	781,64
728,78	773,45
728,96	795,98
729,14	771,40
729,33	803,49
729,51	740,68
729,69	730,44
729,88	731,81
730,06	708,60
730,25	750,92
730,43	708,60
730,61	718,84
730,80	731,81
730,98	783,69
731,16	775,50
731,35	836,94
731,53	842,40
731,71	767,31
731,90	753,65
732,08	835,57
732,26	801,44
732,45	893,60
732,63	847,18
732,81	798,03
733,00	864,24
733,18	858,78
733,36	834,21
733,55	907,25
733,73	895,65
733,91	931,14
734,10	894,96
734,28	991,90
734,46	908,62
734,65	882,67
734,83	912,71
735,01	886,77
735,20	881,99
735,38	877,90
735,56	877,21
735,75	880,63
735,93	879,94
736,11	930,46
736,30	907,93
736,48	886,77
736,66	860,15
736,84	871,75
737,03	866,29
737,21	897,69
737,39	894,28
737,58	888,14
737,76	890,18
737,94	894,96
738,12	894,28
738,31	905,88
738,49	882,67
738,67	901,11
738,86	857,42
739,04	854,69
739,22	850,59
739,40	853,32
739,59	819,87
739,77	856,05
739,95	875,85
740,14	897,01
740,32	883,36
740,50	957,08
740,68	857,42
740,87	845,13
741,05	869,02
741,23	836,94
741,41	833,52
741,60	814,41
741,78	890,87
741,96	857,42
742,14	808,95
742,33	864,93
742,51	903,15
742,69	815,77
742,87	860,83
743,06	888,82
743,24	892,91
743,42	894,28
743,60	905,88
743,79	852,64
743,97	854,00
744,15	844,45
744,33	851,95
744,52	817,82
744,70	850,59
744,88	859,46
745,06	885,41
745,24	888,14
745,43	866,29
745,61	835,57
745,79	835,57
745,97	843,08
746,16	816,46
746,34	855,37
746,52	853,32
746,70	916,81
746,88	824,65
747,07	857,42
747,25	831,48
747,43	865,61
747,61	776,18
747,79	821,92
747,98	797,34
748,16	809,63
748,34	795,98
748,52	846,49
748,70	822,60
748,89	776,18
749,07	844,45
749,25	754,34
749,43	796,66
749,61	777,55
749,79	814,41
749,98	766,62
750,16	767,31
750,34	821,24
750,52	830,11
750,70	826,70
750,88	850,59
751,07	816,46
751,25	813,04
751,43	786,42
751,61	812,36
751,79	822,60
751,97	789,15
752,16	783,69
752,34	791,88
752,52	741,36
752,70	760,48
752,88	797,34
753,06	783,69
753,25	772,08
753,43	798,03
753,61	688,12
753,79	759,11
753,97	783,01
754,15	813,73
754,33	721,57
754,52	804,85
754,70	769,35
754,88	748,87
755,06	757,07
755,24	795,98
755,42	764,58
755,60	830,79
755,78	807,58
755,97	806,22
756,15	791,20
756,33	729,08
756,51	812,36
756,69	785,05
756,87	717,47
757,05	767,31
757,23	799,39
757,41	776,18
757,60	772,08
757,78	805,53
757,96	757,07
758,14	755,02
758,32	770,72
758,50	690,85
758,68	729,76
758,86	706,55
759,04	656,72
759,22	584,35
759,41	434,17
759,59	473,76
759,77	362,49
759,95	314,70
760,13	284,67
760,31	181,59
760,49	182,95
760,67	148,14
760,85	107,18
761,03	201,38
761,21	133,12
761,39	139,94
761,57	85,33
761,76	128,34
761,94	112,64
762,12	139,94
762,30	93,52
762,48	149,50
762,66	99,67
762,84	69,63
763,02	120,83
763,20	83,97
763,38	62,12
763,56	73,73
763,74	66,90
763,92	86,01
764,10	97,62
764,28	94,89
764,46	105,13
764,64	163,84
764,82	175,44
765,00	151,55
765,19	212,99
765,37	179,54
765,55	168,62
765,73	236,88
765,91	284,67
766,09	271,01
766,27	282,62
766,45	383,65
766,63	307,20
766,81	391,84
766,99	409,59
767,17	468,30
767,35	491,51
767,53	479,91
767,71	589,13
767,89	564,56
768,07	593,23
768,25	619,17
768,43	527,01
768,61	598,69
768,79	621,22
768,97	586,40
769,15	603,47
769,33	668,32
769,51	663,54
769,69	694,26
769,87	643,06
770,05	694,26
770,23	607,56
770,41	676,51
770,59	718,84
770,77	694,94
770,95	707,91
771,13	672,42
771,31	661,49
771,49	716,79
771,67	699,72
771,85	673,78
772,03	691,53
772,21	684,70
772,38	716,11
772,56	633,50
772,74	692,21
772,92	710,65
773,10	660,13
773,28	740,68
773,46	710,65
773,64	703,82
773,82	694,94
774,00	643,74
774,18	730,44
774,36	665,59
774,54	643,06
774,72	647,16
774,90	729,76
775,08	645,79
775,26	619,85
775,44	671,05
775,62	620,53
775,80	666,27
775,97	669,00
776,15	702,45
776,33	686,75
776,51	640,33
776,69	678,56
776,87	615,76
777,05	656,72
777,23	646,48
777,41	608,93
777,59	604,15
777,77	677,20
777,95	582,99
778,13	647,84
778,30	649,89
778,48	634,19
778,66	645,79
778,84	662,18
779,02	681,97
779,20	643,06
779,38	619,17
779,56	609,61
779,74	641,70
779,92	581,62
780,09	658,76
780,27	587,08
780,45	641,70
780,63	598,69
780,81	681,29
780,99	665,59
781,17	615,76
781,35	585,04
781,52	604,15
781,70	617,12
781,88	559,10
782,06	567,97
782,24	649,21
782,42	538,62
782,60	602,10
782,78	563,87
782,95	520,87
783,13	545,44
783,31	565,92
783,49	628,04
783,67	569,34
783,85	591,18
784,03	513,36
784,20	585,04
784,38	536,57
784,56	604,15
784,74	557,05
784,92	536,57
785,10	578,21
785,28	574,11
785,45	546,12
785,63	539,30
785,81	494,93
785,99	514,04
786,17	610,98
786,35	530,42
786,52	497,66
786,70	502,44
786,88	494,24
787,06	461,48
787,24	479,22
787,41	487,42
787,59	470,35
787,77	528,38
787,95	503,12
788,13	530,42
788,31	484,00
788,48	507,21
788,66	457,38
788,84	462,84
789,02	531,79
789,20	448,51
789,37	445,77
789,55	471,03
789,73	438,27
789,91	511,31
790,09	466,25
790,26	496,29
790,44	494,24
790,62	466,94
790,80	460,11
790,98	402,08
791,15	421,88
791,33	411,64
791,51	401,40
791,69	455,33
791,86	428,03
792,04	432,80
792,22	458,75
792,40	505,85
792,58	436,22
792,75	446,46
792,93	443,73
793,11	419,83
793,29	390,48
793,46	442,36
793,64	459,43
793,82	395,94
794,00	323,58
794,17	428,03
794,35	428,71
794,53	378,19
794,71	411,64
794,88	388,43
795,06	386,38
795,24	443,73
795,42	412,32
795,59	435,53
795,77	372,05
795,95	406,18
796,13	363,86
796,30	417,10
796,48	342,01
796,66	415,05
796,83	396,62
797,01	381,60
797,19	395,26
797,37	388,43
797,54	424,61
797,72	421,88
797,90	374,78
798,08	363,86
798,25	428,03
798,43	436,90
798,61	398,67
798,78	387,75
798,96	419,83
799,14	348,15
799,31	376,14
799,49	405,50
799,67	359,76
799,85	320,17
800,02	318,12
800,20	333,82
800,38	318,80
800,55	354,30
800,73	365,22
800,91	356,35
801,08	347,47
801,26	330,41
801,44	349,52
801,61	357,71
801,79	348,84
801,97	330,41
802,15	281,94
802,32	386,38
802,50	338,60
802,68	294,22
802,85	268,97
803,03	329,04
803,21	304,46
803,38	304,46
803,56	324,26
803,74	321,53
803,91	348,84
804,09	322,90
804,26	332,45
804,44	337,91
804,62	325,63
804,79	348,84
804,97	339,96
805,15	323,58
805,32	315,39
805,50	296,96
805,68	287,40
805,85	314,70
806,03	320,17
806,21	312,66
806,38	294,91
806,56	303,78
806,73	321,53
806,91	316,75
807,09	358,39
807,26	301,05
807,44	342,69
807,62	347,47
807,79	271,01
807,97	314,02
808,14	327,67
808,32	240,30
808,50	299,00
808,67	258,73
808,85	333,14
809,02	273,06
809,20	321,53
809,38	296,27
809,55	316,07
809,73	234,83
809,90	297,64
810,08	268,97
810,26	243,03
810,43	279,89
810,61	301,73
810,78	229,37
810,96	212,99
811,14	251,90
811,31	236,88
811,49	262,82
811,66	232,79
811,84	232,10
812,02	296,27
812,19	251,22
812,37	258,04
812,54	243,71
812,72	225,96
812,89	220,50
813,07	243,03
813,25	192,51
813,42	232,79
813,60	202,07
813,77	208,89
813,95	223,23
814,12	230,06
814,30	204,80
814,47	249,17
814,65	192,51
814,83	155,65
815,00	169,30
815,18	157,01
815,35	163,84
815,53	122,20
815,70	146,77
815,88	126,29
816,05	129,02
816,23	184,32
816,40	138,58
816,58	206,84
816,75	159,06
816,93	127,66
817,10	138,58
817,28	157,69
817,46	128,34
817,63	109,91
817,81	182,27
817,98	94,21
818,16	191,14
818,33	162,47
818,51	94,89
818,68	131,07
818,86	144,04
819,03	149,50
819,21	167,25
819,38	156,33
819,56	119,46
819,73	102,40
819,91	133,12
820,08	182,95
820,26	168,62
820,43	121,51
820,61	181,59
820,78	137,90
820,96	120,83
821,13	148,82
821,31	115,37
821,48	202,07
821,66	247,80
821,83	119,46
822,00	166,57
822,18	120,83
822,35	185,00
822,53	169,30
822,70	153,60
822,88	119,46
823,05	79,19
823,23	148,14
823,40	114,69
823,58	120,83
823,75	167,93
823,93	133,80
824,10	197,29
824,28	86,70
824,45	198,65
824,62	102,40
824,80	103,76
824,97	119,46
825,15	146,77
825,32	143,36
825,50	120,83
825,67	123,56
825,85	154,28
826,02	166,57
826,19	161,11
826,37	89,43
826,54	176,13
826,72	147,45
826,89	126,29
827,07	116,05
827,24	160,42
827,41	165,89
827,59	120,15
827,76	109,23
827,94	176,81
828,11	93,52
828,28	154,28
828,46	133,80
828,63	148,82
828,81	116,73
828,98	113,32
829,15	212,99
829,33	129,02
829,50	105,81
829,68	120,15
829,85	101,72
830,02	152,91
830,20	129,02
830,37	150,87
830,55	169,30
830,72	137,21
830,89	144,04
831,07	141,31
831,24	103,76
831,42	78,51
831,59	127,66
831,76	108,54
831,94	136,53
832,11	90,11
832,28	58,71
832,46	77,82
832,63	135,85
832,81	139,94
832,98	100,35
833,15	92,84
833,33	113,32
833,50	107,18
833,67	114,69
833,85	92,84
834,02	165,89
834,19	118,78
834,37	159,74
834,54	112,64
834,71	109,91
834,89	131,07
835,06	115,37
835,23	123,56
835,41	131,07
835,58	141,31
835,75	86,70
835,93	134,48
836,10	141,99
836,27	133,12
836,45	167,25
836,62	161,11
836,79	133,80
836,97	79,87
837,14	136,53
837,31	65,53
837,49	121,51
837,66	96,94
837,83	136,53
838,01	94,21
838,18	64,17
838,35	134,48
838,53	146,09
838,70	137,90
838,87	97,62
839,04	70,31
839,22	156,33
839,39	104,45
839,56	83,28
839,74	116,05
839,91	149,50
840,08	167,25
840,26	114,00
840,43	114,69
840,60	130,39
840,77	108,54
840,95	110,59
841,12	126,97
841,29	119,46
841,46	119,46
841,64	112,64
841,81	136,53
841,98	74,41
842,16	165,20
842,33	143,36
842,50	105,13
842,67	75,77
842,85	126,29
843,02	131,75
843,19	118,78
843,36	167,25
843,54	146,09
843,71	69,63
843,88	117,42
844,05	100,35
844,23	106,49
844,40	139,94
844,57	92,84
844,74	71,00
844,92	94,89
845,09	99,67
845,26	103,76
845,43	120,83
845,61	120,15
845,78	103,76
845,95	71,68
846,12	109,22
846,29	68,95
846,47	98,30
846,64	105,13
846,81	61,44
846,98	78,51
847,16	83,28
847,33	116,05
847,50	149,50
847,67	77,14
847,84	125,61
848,02	111,27
848,19	90,11
848,36	95,57
848,53	82,60
848,70	77,14
848,88	144,72
849,05	98,99
849,22	96,94
849,39	75,77
849,56	142,68
849,74	88,06
849,91	56,66
850,08	105,81
850,25	122,20
850,42	107,18
850,60	114,69
850,77	49,15
850,94	86,01
851,11	94,89
851,28	81,92
851,45	141,31
851,63	47,10
851,80	44,37
851,97	151,55
852,14	86,01
852,31	75,09
852,48	84,65
852,66	96,94
852,83	51,20
853,00	60,76
853,17	39,59
853,34	90,11
853,51	93,52
853,68	79,19
853,86	19,80
854,03	73,04
854,20	64,17
854,37	47,10
854,54	60,76
854,71	81,24
854,88	44,37
855,06	77,14
855,23	38,23
855,40	66,22
855,57	67,58
855,74	45,74
855,91	77,14
856,08	75,77
856,25	44,37
856,43	40,96
856,60	31,40
856,77	14,34
856,94	66,22
857,11	122,20
857,28	73,04
857,45	97,62
857,62	41,64
857,79	75,09
857,97	92,16
858,14	129,02
858,31	108,54
858,48	61,44
858,65	4,78
858,82	88,06
858,99	71,00
859,16	77,14
859,33	124,24
859,50	102,40
859,67	36,86
859,85	92,84
860,02	51,88
860,19	77,82
860,36	84,65
860,53	17,75
860,70	49,83
860,87	43,69
861,04	78,51
861,21	55,30
861,38	61,44
861,55	70,31
861,72	83,97
861,89	136,53
862,06	71,68
862,23	90,11
862,41	66,90
862,58	62,12
862,75	84,65
862,92	78,51
863,09	63,49
863,26	74,41
863,43	101,03
863,60	51,88
863,77	43,69
863,94	24,58
864,11	116,73
864,28	38,91
864,45	58,03
864,62	53,25
864,79	3,41
864,96	126,29
865,13	69,63
865,30	70,31
865,47	63,49
865,64	67,58
865,81	40,28
865,98	30,04
866,15	29,35
866,32	53,25
866,49	40,96
866,66	48,47
866,83	21,85
867,00	47,79
867,17	59,39
867,34	29,35
867,51	16,38
867,68	1,37
867,85	40,96
868,02	0,68
868,19	31,40
868,36	109,22
868,53	38,23
868,70	38,91
868,87	24,58
869,04	25,26
869,21	36,18
869,38	39,59
869,55	49,83
869,72	67,58
869,89	63,49
870,06	15,02
870,23	85,33
870,40	15,02
870,57	115,37
870,74	43,01
870,91	92,84
871,08	0,68
871,25	60,07
871,42	45,06
871,59	47,10
871,76	7,51
871,93	76,46
872,10	68,27
872,27	30,72
872,44	68,95
872,60	81,92
872,77	13,65
872,94	3,41
873,11	73,73
873,28	25,94
873,45	72,36
873,62	-2,05
873,79	82,60
873,96	24,58
874,13	36,86
874,30	38,23
874,47	67,58
874,64	16,38
874,81	48,47
874,97	10,24
875,14	5,46
875,31	-20,48
875,48	9,56
875,65	11,61
875,82	43,01
875,99	6,14
876,16	37,55
876,33	4,10
876,50	10,92
876,67	32,08
876,83	34,82
877,00	51,88
877,17	59,39
877,34	-3,41
877,51	37,55
877,68	-0,68
877,85	-8,87
878,02	73,04
878,19	-10,24
878,35	34,13
878,52	32,77
878,69	8,19
878,86	23,89
879,03	-2,73
879,20	2,05
879,37	44,37
879,54	-14,34
879,70	15,70
879,87	21,16
880,04	58,03
880,21	19,11
880,38	19,80
880,55	49,15
880,72	21,84
880,89	45,74
881,05	32,08
881,22	-2,73
881,39	-30,04
881,56	18,43
881,73	21,16
881,90	39,59
882,06	26,62
882,23	-21,84
882,40	-17,75
882,57	74,41
882,74	-9,56
882,91	6,83
883,07	-24,58
883,24	11,61
883,41	38,91
883,58	60,76
883,75	-2,05
883,92	10,92
884,08	28,67
884,25	25,94
884,42	11,61
884,59	25,94
884,76	25,94
884,92	36,86
885,09	41,64
885,26	10,92
885,43	15,02
885,60	8,87
885,76	21,16
885,93	-15,70
886,10	-16,38
886,27	-15,70
886,44	27,99
886,60	30,04
886,77	38,23
886,94	-12,29
887,11	63,49
887,28	-8,19
887,44	39,59
887,61	6,83
887,78	-18,43
887,95	-4,10
888,12	-51,88
888,28	9,56
888,45	-9,56
888,62	47,10
888,79	31,40
888,95	-7,51
889,12	11,61
889,29	15,02
889,46	19,11
889,62	-38,91
889,79	29,35
889,96	34,13
890,13	12,97
890,29	28,67
890,46	47,79
890,63	-2,73
890,80	-14,34
890,96	-28,67
891,13	-34,13
891,30	15,70
891,47	37,55
891,63	-1,37
891,80	0,68
891,97	-4,78
892,14	-6,83
892,30	58,03
892,47	-22,53
892,64	-8,87
892,80	-30,04
892,97	38,91
893,14	-2,73
893,31	-8,87
893,47	22,53
893,64	-23,89
893,81	11,61
893,97	32,08
894,14	-6,14
>>>>>End Processed Spectral Data<<<<<
