SpectraSuite Datei
++++++++++++++++++++++++++++++++++++
Datum: Wed Dec 06 16:55:08 CET 2017
Benutzer: Praktikum-Pc1
Dark-Spektrum vorhanden: Ja
Referenz-Spektrum vorhanden: Ja
Zahl der probierten Teilspektren: 1
Spektrometer: USB4H10187
Integrationszeit (usec): 5000 (USB4H10187)
Spektren Durchschnitt berechnet: 54 (USB4H10187)
Boxcar Glättung: 0 (USB4H10187)
Dunkelstromkorrektur: Nein (USB4H10187)
Puls/Lampe aktiviert: Nein (USB4H10187)
Correct for Detector Non-linearity: Nein (USB4H10187)
Streulichtkorrektur: Nein (USB4H10187)
Anzahl Pixel in verarbeitetem Spektrum: 3648
>>>>>Begin Processed Spectral Data<<<<<
176,80	7,73
177,02	7,73
177,24	7,73
177,46	5,22
177,68	9,70
177,91	1,68
178,13	3,52
178,35	-1,77
178,57	22,79
178,79	8,93
179,02	0,76
179,24	-3,98
179,46	6,84
179,68	1,65
179,90	-1,81
180,12	-0,58
180,35	-3,18
180,57	6,09
180,79	10,49
181,01	23,09
181,23	38,81
181,46	33,06
181,68	32,76
181,90	40,29
182,12	46,82
182,34	57,93
182,56	38,01
182,79	26,81
183,01	30,33
183,23	17,65
183,45	57,93
183,67	31,64
183,89	24,45
184,12	57,27
184,34	28,97
184,56	31,52
184,78	38,92
185,00	41,77
185,22	23,48
185,45	36,48
185,67	39,05
185,89	23,13
186,11	41,83
186,33	40,75
186,55	33,27
186,77	37,05
187,00	42,36
187,22	45,83
187,44	43,54
187,66	59,01
187,88	44,98
188,10	31,80
188,32	42,06
188,55	43,02
188,77	47,75
188,99	34,91
189,21	42,33
189,43	45,07
189,65	41,40
189,87	52,50
190,10	36,31
190,32	45,63
190,54	55,46
190,76	39,49
190,98	35,48
191,20	50,79
191,42	27,48
191,64	10,27
191,87	38,65
192,09	34,93
192,31	32,13
192,53	32,49
192,75	50,13
192,97	32,06
193,19	40,88
193,41	46,65
193,64	26,78
193,86	51,84
194,08	32,03
194,30	46,11
194,52	45,12
194,74	40,13
194,96	41,76
195,18	43,25
195,40	36,46
195,63	37,33
195,85	47,80
196,07	46,69
196,29	41,74
196,51	53,55
196,73	29,67
196,95	25,56
197,17	47,32
197,39	53,03
197,61	51,23
197,84	40,70
198,06	28,38
198,28	56,56
198,50	29,18
198,72	50,99
198,94	42,91
199,16	45,76
199,38	43,65
199,60	47,63
199,82	25,49
200,04	53,52
200,26	49,97
200,49	53,46
200,71	52,42
200,93	59,94
201,15	34,79
201,37	40,73
201,59	40,55
201,81	45,20
202,03	52,53
202,25	45,59
202,47	69,35
202,69	45,76
202,91	65,21
203,13	42,11
203,35	49,58
203,58	52,21
203,80	59,06
204,02	64,59
204,24	55,12
204,46	39,74
204,68	52,23
204,90	46,23
205,12	49,39
205,34	51,66
205,56	58,95
205,78	34,40
206,00	46,14
206,22	37,67
206,44	28,99
206,66	45,50
206,88	43,36
207,10	50,77
207,32	46,70
207,54	34,73
207,76	53,79
207,99	53,71
208,21	57,25
208,43	48,29
208,65	49,40
208,87	47,90
209,09	34,58
209,31	46,57
209,53	42,18
209,75	34,31
209,97	42,14
210,19	41,52
210,41	43,32
210,63	40,27
210,85	47,55
211,07	61,69
211,29	38,24
211,51	50,74
211,73	57,81
211,95	58,28
212,17	48,43
212,39	47,30
212,61	61,45
212,83	43,21
213,05	53,06
213,27	39,69
213,49	46,53
213,71	48,39
213,93	73,83
214,15	39,57
214,37	43,86
214,59	48,26
214,81	47,13
215,03	51,18
215,25	44,76
215,47	33,28
215,69	50,55
215,91	42,18
216,13	60,24
216,35	72,19
216,57	39,37
216,79	52,67
217,01	46,90
217,23	58,34
217,45	42,10
217,67	57,52
217,89	53,70
218,11	72,13
218,33	47,74
218,55	54,14
218,77	69,79
218,99	65,24
219,21	65,23
219,43	42,86
219,65	48,86
219,87	50,79
220,09	57,27
220,31	57,86
220,53	40,05
220,75	39,76
220,97	43,72
221,19	54,35
221,41	63,33
221,63	45,76
221,85	53,54
222,06	45,25
222,28	53,05
222,50	50,92
222,72	40,57
222,94	61,74
223,16	60,98
223,38	54,54
223,60	48,23
223,82	56,64
224,04	58,06
224,26	57,90
224,48	64,80
224,70	52,10
224,92	51,61
225,14	51,43
225,36	61,09
225,58	62,69
225,80	35,80
226,02	41,82
226,24	47,69
226,45	41,47
226,67	46,93
226,89	63,40
227,11	39,71
227,33	54,65
227,55	40,02
227,77	43,30
227,99	66,75
228,21	61,26
228,43	42,39
228,65	46,13
228,87	53,78
229,09	55,59
229,31	62,36
229,52	54,93
229,74	69,67
229,96	60,48
230,18	52,25
230,40	37,13
230,62	40,94
230,84	53,81
231,06	50,51
231,28	55,77
231,50	67,15
231,72	56,87
231,94	46,31
232,15	64,76
232,37	50,87
232,59	59,15
232,81	74,77
233,03	43,14
233,25	59,82
233,47	48,46
233,69	62,64
233,91	57,01
234,13	49,01
234,34	59,49
234,56	74,76
234,78	77,83
235,00	74,14
235,22	77,53
235,44	55,05
235,66	71,72
235,88	66,64
236,10	49,74
236,31	66,11
236,53	64,13
236,75	53,04
236,97	52,84
237,19	36,42
237,41	57,38
237,63	36,57
237,85	61,75
238,07	45,96
238,28	61,47
238,50	56,43
238,72	58,92
238,94	64,61
239,16	51,13
239,38	48,97
239,60	61,29
239,81	56,63
240,03	65,53
240,25	51,56
240,47	63,87
240,69	54,15
240,91	62,00
241,13	46,16
241,34	57,43
241,56	55,85
241,78	44,25
242,00	47,04
242,22	62,58
242,44	44,65
242,66	60,01
242,87	35,95
243,09	52,22
243,31	54,26
243,53	66,24
243,75	53,29
243,97	52,33
244,19	56,97
244,40	65,08
244,62	48,68
244,84	74,59
245,06	57,48
245,28	49,95
245,50	70,77
245,71	65,25
245,93	67,00
246,15	66,20
246,37	76,78
246,59	45,09
246,81	83,49
247,02	57,08
247,24	71,29
247,46	79,97
247,68	53,26
247,90	52,45
248,11	79,04
248,33	76,48
248,55	83,16
248,77	84,11
248,99	81,52
249,21	70,37
249,42	86,64
249,64	101,64
249,86	87,46
250,08	106,36
250,30	106,16
250,51	96,11
250,73	98,72
250,95	97,24
251,17	103,71
251,39	83,03
251,60	90,22
251,82	89,94
252,04	96,01
252,26	88,34
252,48	109,28
252,69	106,41
252,91	87,22
253,13	115,37
253,35	119,91
253,57	99,18
253,78	93,86
254,00	103,26
254,22	85,36
254,44	89,85
254,65	82,21
254,87	107,65
255,09	101,81
255,31	104,93
255,53	82,98
255,74	101,54
255,96	104,68
256,18	89,19
256,40	108,48
256,61	91,12
256,83	86,59
257,05	107,84
257,27	102,59
257,48	91,34
257,70	105,14
257,92	105,63
258,14	98,09
258,36	95,64
258,57	85,40
258,79	106,95
259,01	90,32
259,23	100,11
259,44	101,11
259,66	111,42
259,88	112,96
260,10	113,74
260,31	111,62
260,53	117,97
260,75	122,77
260,97	119,97
261,18	103,45
261,40	120,99
261,62	102,58
261,84	111,08
262,05	114,38
262,27	110,96
262,49	102,05
262,71	105,40
262,92	119,73
263,14	96,83
263,36	118,43
263,57	107,35
263,79	119,11
264,01	111,00
264,23	117,06
264,44	137,04
264,66	120,33
264,88	110,44
265,10	121,85
265,31	119,78
265,53	112,61
265,75	114,17
265,96	125,07
266,18	118,96
266,40	120,03
266,62	130,36
266,83	128,15
267,05	118,69
267,27	132,09
267,48	131,54
267,70	133,83
267,92	121,43
268,14	130,80
268,35	138,99
268,57	125,12
268,79	122,02
269,00	114,38
269,22	116,87
269,44	130,74
269,65	124,07
269,87	133,10
270,09	126,60
270,31	114,67
270,52	119,24
270,74	128,43
270,96	124,34
271,17	134,68
271,39	116,34
271,61	130,97
271,82	141,16
272,04	145,10
272,26	137,16
272,47	135,04
272,69	127,92
272,91	130,91
273,12	131,58
273,34	113,88
273,56	128,65
273,77	124,69
273,99	119,97
274,21	127,11
274,42	106,17
274,64	125,88
274,86	124,54
275,08	120,45
275,29	129,58
275,51	122,51
275,72	112,60
275,94	111,33
276,16	105,49
276,37	117,52
276,59	112,62
276,81	127,72
277,02	112,32
277,24	115,10
277,46	126,07
277,67	114,57
277,89	119,84
278,11	120,50
278,32	110,08
278,54	117,95
278,76	122,04
278,97	96,96
279,19	124,77
279,41	111,02
279,62	96,96
279,84	125,54
280,05	121,16
280,27	122,72
280,49	117,87
280,70	100,16
280,92	100,84
281,14	103,97
281,35	99,45
281,57	95,61
281,79	111,97
282,00	103,77
282,22	89,42
282,43	94,51
282,65	88,01
282,87	93,61
283,08	74,84
283,30	100,02
283,52	81,80
283,73	89,17
283,95	71,47
284,16	79,76
284,38	72,30
284,60	73,26
284,81	87,02
285,03	84,10
285,24	71,43
285,46	87,62
285,68	98,26
285,89	77,83
286,11	88,46
286,32	97,42
286,54	86,02
286,76	99,41
286,97	93,69
287,19	106,58
287,40	109,08
287,62	69,18
287,84	85,31
288,05	81,65
288,27	87,95
288,48	73,68
288,70	91,85
288,92	75,83
289,13	73,78
289,35	73,73
289,56	69,32
289,78	79,32
289,99	89,81
290,21	96,51
290,43	65,23
290,64	94,16
290,86	84,36
291,07	93,39
291,29	90,73
291,51	85,39
291,72	78,48
291,94	87,35
292,15	78,29
292,37	80,38
292,58	95,65
292,80	95,83
293,01	98,92
293,23	102,83
293,45	109,70
293,66	106,89
293,88	136,92
294,09	112,85
294,31	142,49
294,52	149,31
294,74	131,57
294,96	131,28
295,17	128,07
295,39	114,25
295,60	109,71
295,82	84,69
296,03	98,51
296,25	78,77
296,46	82,21
296,68	90,32
296,89	92,77
297,11	89,98
297,32	95,94
297,54	95,08
297,76	87,01
297,97	85,07
298,19	75,78
298,40	80,34
298,62	73,02
298,83	85,20
299,05	75,71
299,26	88,43
299,48	86,81
299,69	83,21
299,91	72,93
300,12	97,25
300,34	63,49
300,55	94,84
300,77	85,31
300,98	91,51
301,20	79,88
301,41	91,05
301,63	88,04
301,84	94,20
302,06	98,99
302,28	90,18
302,49	92,19
302,71	102,11
302,92	84,60
303,14	100,58
303,35	88,67
303,57	74,12
303,78	102,01
304,00	93,02
304,21	86,17
304,43	91,91
304,64	82,35
304,86	75,57
305,07	89,83
305,29	88,89
305,50	78,04
305,71	87,74
305,93	107,94
306,14	96,37
306,36	110,58
306,57	80,66
306,79	93,31
307,00	86,04
307,22	105,15
307,43	87,00
307,65	101,15
307,86	101,59
308,08	105,92
308,29	104,73
308,51	86,05
308,72	96,40
308,94	104,42
309,15	107,87
309,37	97,20
309,58	99,29
309,80	85,77
310,01	98,53
310,22	89,31
310,44	108,77
310,65	83,52
310,87	97,52
311,08	109,49
311,30	99,55
311,51	106,92
311,73	95,67
311,94	111,17
312,16	112,85
312,37	92,96
312,58	90,22
312,80	111,68
313,01	102,64
313,23	113,60
313,44	113,66
313,66	111,77
313,87	95,31
314,09	99,19
314,30	89,67
314,51	89,51
314,73	88,65
314,94	112,81
315,16	108,79
315,37	111,92
315,59	110,63
315,80	92,75
316,01	92,67
316,23	135,91
316,44	108,73
316,66	136,23
316,87	131,77
317,09	143,85
317,30	120,38
317,51	118,50
317,73	123,82
317,94	111,63
318,16	122,70
318,37	107,31
318,58	107,06
318,80	125,12
319,01	108,07
319,23	118,16
319,44	100,61
319,66	105,67
319,87	110,91
320,08	101,69
320,30	104,96
320,51	114,52
320,73	113,55
320,94	102,26
321,15	111,10
321,37	113,66
321,58	116,60
321,80	123,22
322,01	110,37
322,22	108,48
322,44	116,74
322,65	114,24
322,86	115,89
323,08	99,21
323,29	114,77
323,51	122,66
323,72	117,41
323,93	123,87
324,15	122,03
324,36	135,36
324,58	128,73
324,79	128,99
325,00	139,83
325,22	133,07
325,43	136,88
325,64	127,11
325,86	127,25
326,07	132,98
326,28	145,16
326,50	128,31
326,71	143,26
326,93	141,22
327,14	143,33
327,35	158,15
327,57	149,96
327,78	153,70
327,99	163,80
328,21	148,34
328,42	171,46
328,63	219,45
328,85	278,36
329,06	508,15
329,27	1229,35
329,49	2877,21
329,70	5106,97
329,91	7758,01
330,13	10207,48
330,34	11627,42
330,56	11718,61
330,77	10219,74
330,98	8079,35
331,20	5255,10
331,41	3038,98
331,62	1331,09
331,84	578,97
332,05	296,07
332,26	238,58
332,48	194,06
332,69	182,03
332,90	155,81
333,11	168,09
333,33	164,20
333,54	146,29
333,75	149,78
333,97	140,26
334,18	142,36
334,39	144,77
334,61	131,60
334,82	145,11
335,03	135,45
335,25	141,33
335,46	122,02
335,67	145,03
335,89	137,57
336,10	140,26
336,31	136,06
336,53	125,70
336,74	143,84
336,95	148,27
337,16	143,74
337,38	144,10
337,59	138,91
337,80	132,18
338,02	119,32
338,23	145,60
338,44	137,24
338,65	148,92
338,87	127,45
339,08	140,48
339,29	133,83
339,51	126,34
339,72	143,49
339,93	141,77
340,14	137,58
340,36	129,95
340,57	108,18
340,78	119,99
341,00	128,67
341,21	130,13
341,42	121,67
341,63	121,76
341,85	117,01
342,06	140,79
342,27	143,57
342,49	129,26
342,70	144,32
342,91	141,62
343,12	138,94
343,34	143,09
343,55	154,59
343,76	154,44
343,97	138,55
344,19	149,59
344,40	120,26
344,61	132,27
344,82	126,56
345,04	132,17
345,25	131,72
345,46	143,77
345,67	146,44
345,89	127,62
346,10	128,78
346,31	137,10
346,52	134,73
346,74	137,02
346,95	136,50
347,16	122,67
347,37	144,66
347,59	135,65
347,80	138,65
348,01	127,02
348,22	145,41
348,43	138,66
348,65	118,04
348,86	140,31
349,07	139,84
349,28	138,85
349,50	127,74
349,71	140,40
349,92	125,40
350,13	136,03
350,34	131,76
350,56	151,26
350,77	146,37
350,98	132,85
351,19	150,83
351,41	156,42
351,62	142,31
351,83	141,09
352,04	127,96
352,25	139,47
352,47	142,41
352,68	132,58
352,89	133,36
353,10	134,40
353,31	151,78
353,53	153,70
353,74	167,14
353,95	153,48
354,16	162,48
354,37	176,22
354,59	177,81
354,80	173,69
355,01	160,68
355,22	162,68
355,43	163,43
355,65	161,84
355,86	170,27
356,07	176,23
356,28	175,11
356,49	177,09
356,70	155,01
356,92	151,02
357,13	161,91
357,34	150,48
357,55	131,52
357,76	158,13
357,98	143,07
358,19	138,07
358,40	136,23
358,61	141,20
358,82	150,58
359,03	148,18
359,25	162,38
359,46	158,22
359,67	145,16
359,88	156,85
360,09	140,77
360,30	144,01
360,51	140,13
360,73	159,32
360,94	161,02
361,15	162,59
361,36	151,97
361,57	138,18
361,78	151,31
362,00	129,52
362,21	144,80
362,42	143,42
362,63	136,63
362,84	148,59
363,05	128,76
363,26	145,82
363,48	153,86
363,69	140,73
363,90	158,66
364,11	169,09
364,32	162,39
364,53	151,98
364,74	163,21
364,95	159,84
365,17	160,68
365,38	145,08
365,59	162,87
365,80	157,51
366,01	142,61
366,22	150,02
366,43	152,23
366,64	144,95
366,86	159,53
367,07	148,36
367,28	156,23
367,49	158,63
367,70	161,05
367,91	155,19
368,12	164,16
368,33	173,40
368,54	146,40
368,76	143,70
368,97	163,38
369,18	152,05
369,39	175,44
369,60	173,39
369,81	163,72
370,02	165,17
370,23	178,20
370,44	172,42
370,65	184,42
370,87	148,58
371,08	152,69
371,29	165,48
371,50	146,23
371,71	154,21
371,92	162,80
372,13	148,58
372,34	176,30
372,55	168,12
372,76	173,71
372,97	168,56
373,18	151,48
373,40	167,74
373,61	149,66
373,82	160,33
374,03	145,97
374,24	154,04
374,45	153,84
374,66	163,85
374,87	152,96
375,08	164,35
375,29	169,38
375,50	147,01
375,71	167,25
375,92	158,74
376,13	170,60
376,34	154,75
376,56	163,19
376,77	156,65
376,98	166,17
377,19	163,58
377,40	154,24
377,61	160,22
377,82	150,48
378,03	154,87
378,24	169,26
378,45	163,86
378,66	142,57
378,87	148,07
379,08	143,92
379,29	145,92
379,50	157,12
379,71	147,24
379,92	133,03
380,13	144,41
380,34	163,65
380,55	158,65
380,76	160,25
380,97	164,92
381,18	165,15
381,39	168,95
381,60	146,21
381,81	147,97
382,02	149,19
382,24	142,97
382,45	149,44
382,66	139,74
382,87	139,41
383,08	162,37
383,29	147,45
383,50	168,99
383,71	148,11
383,92	157,98
384,13	175,66
384,34	163,08
384,55	162,92
384,76	168,78
384,97	168,16
385,18	182,11
385,39	163,64
385,60	165,12
385,81	182,52
386,02	170,67
386,23	154,79
386,44	174,70
386,65	171,96
386,86	176,33
387,07	166,01
387,28	158,80
387,49	151,66
387,70	140,98
387,91	139,98
388,12	136,58
388,32	142,24
388,53	130,56
388,74	159,02
388,95	146,36
389,16	151,38
389,37	171,69
389,58	176,63
389,79	181,57
390,00	183,63
390,21	168,09
390,42	172,90
390,63	187,15
390,84	169,22
391,05	178,07
391,26	181,28
391,47	174,54
391,68	161,85
391,89	154,04
392,10	157,69
392,31	148,35
392,52	156,01
392,73	154,47
392,94	140,83
393,15	158,35
393,36	156,22
393,57	157,27
393,78	149,96
393,98	178,13
394,19	165,44
394,40	212,01
394,61	232,14
394,82	248,66
395,03	251,52
395,24	237,52
395,45	227,34
395,66	201,65
395,87	170,43
396,08	185,14
396,29	176,69
396,50	178,14
396,71	149,49
396,92	138,22
397,12	155,84
397,33	153,15
397,54	154,20
397,75	147,86
397,96	153,41
398,17	159,55
398,38	147,23
398,59	160,60
398,80	157,22
399,01	162,36
399,22	182,75
399,43	170,76
399,63	160,05
399,84	184,20
400,05	170,79
400,26	186,05
400,47	181,86
400,68	175,44
400,89	172,01
401,10	165,04
401,31	167,85
401,52	170,27
401,72	154,11
401,93	158,12
402,14	153,90
402,35	159,79
402,56	161,36
402,77	167,60
402,98	168,88
403,19	176,30
403,40	174,39
403,60	187,59
403,81	209,64
404,02	223,56
404,23	237,98
404,44	268,84
404,65	290,62
404,86	270,96
405,07	263,27
405,27	236,61
405,48	212,31
405,69	196,27
405,90	191,52
406,11	163,53
406,32	173,69
406,53	173,89
406,74	150,04
406,94	158,85
407,15	169,30
407,36	148,27
407,57	165,45
407,78	157,98
407,99	170,98
408,20	150,75
408,40	172,84
408,61	163,74
408,82	173,14
409,03	175,97
409,24	152,74
409,45	157,57
409,65	173,10
409,86	172,30
410,07	177,30
410,28	173,60
410,49	185,40
410,70	186,73
410,90	178,74
411,11	191,86
411,32	179,01
411,53	172,31
411,74	193,72
411,95	183,17
412,15	182,35
412,36	198,32
412,57	182,14
412,78	188,91
412,99	192,75
413,20	209,30
413,40	201,06
413,61	198,21
413,82	196,50
414,03	195,62
414,24	194,23
414,44	186,18
414,65	190,15
414,86	204,62
415,07	259,41
415,28	372,16
415,48	469,68
415,69	610,30
415,90	738,35
416,11	743,14
416,32	708,42
416,53	627,58
416,73	537,96
416,94	438,78
417,15	361,64
417,36	300,44
417,56	253,93
417,77	248,24
417,98	251,82
418,19	270,12
418,40	301,30
418,60	320,97
418,81	366,15
419,02	425,47
419,23	530,39
419,44	624,45
419,64	750,33
419,85	898,48
420,06	949,08
420,27	964,93
420,47	867,26
420,68	712,99
420,89	555,85
421,10	435,11
421,30	340,97
421,51	283,13
421,72	239,25
421,93	221,15
422,14	193,96
422,34	200,56
422,55	162,90
422,76	168,91
422,97	179,23
423,17	176,94
423,38	173,87
423,59	180,93
423,80	163,16
424,00	172,81
424,21	177,87
424,42	188,43
424,63	194,37
424,83	194,32
425,04	227,13
425,25	252,53
425,46	280,91
425,66	325,22
425,87	357,33
426,08	366,12
426,28	432,79
426,49	440,03
426,70	449,68
426,91	466,82
427,11	457,99
427,32	449,70
427,53	405,65
427,74	353,24
427,94	319,15
428,15	278,55
428,36	235,85
428,56	218,64
428,77	209,23
428,98	191,21
429,19	208,10
429,39	238,89
429,60	264,07
429,81	281,38
430,01	305,89
430,22	306,22
430,43	303,31
430,64	298,71
430,84	272,05
431,05	236,06
431,26	220,46
431,46	199,69
431,67	195,91
431,88	195,55
432,08	171,61
432,29	203,59
432,50	208,48
432,70	219,55
432,91	262,91
433,12	305,51
433,33	317,95
433,53	364,94
433,74	373,10
433,95	367,27
434,15	341,74
434,36	327,57
434,57	282,34
434,77	287,66
434,98	243,42
435,19	220,51
435,39	197,77
435,60	212,81
435,81	195,28
436,01	185,17
436,22	176,99
436,43	183,36
436,63	173,32
436,84	171,80
437,05	160,33
437,25	183,69
437,46	176,65
437,67	185,42
437,87	181,91
438,08	183,10
438,29	195,45
438,49	186,50
438,70	190,94
438,91	189,62
439,11	190,45
439,32	205,25
439,52	204,54
439,73	189,88
439,94	181,34
440,14	176,31
440,35	189,44
440,56	171,61
440,76	197,66
440,97	183,95
441,18	164,49
441,38	174,71
441,59	181,81
441,79	173,98
442,00	173,43
442,21	197,75
442,41	198,69
442,62	178,16
442,83	187,00
443,03	161,30
443,24	184,18
443,44	182,64
443,65	190,50
443,86	165,46
444,06	162,23
444,27	174,05
444,48	165,34
444,68	176,19
444,89	181,58
445,09	181,11
445,30	170,81
445,51	188,99
445,71	190,75
445,92	176,90
446,12	174,48
446,33	184,55
446,54	182,55
446,74	172,29
446,95	179,20
447,15	178,95
447,36	186,42
447,57	177,59
447,77	178,30
447,98	192,16
448,18	166,38
448,39	165,22
448,59	172,55
448,80	186,09
449,01	196,13
449,21	211,45
449,42	226,45
449,62	220,90
449,83	212,21
450,04	219,28
450,24	207,55
450,45	230,61
450,65	229,73
450,86	239,01
451,06	235,56
451,27	254,67
451,47	238,82
451,68	235,46
451,89	239,17
452,09	236,97
452,30	221,30
452,50	220,51
452,71	200,05
452,91	209,85
453,12	204,96
453,33	192,28
453,53	200,88
453,74	199,84
453,94	207,84
454,15	208,37
454,35	203,79
454,56	268,97
454,76	399,96
454,97	542,11
455,17	739,43
455,38	913,08
455,58	974,18
455,79	920,22
456,00	823,92
456,20	664,48
456,41	534,29
456,61	393,65
456,82	330,63
457,02	275,63
457,23	235,25
457,43	191,74
457,64	196,52
457,84	173,85
458,05	178,36
458,25	174,16
458,46	185,68
458,66	180,70
458,87	183,02
459,07	209,12
459,28	196,92
459,48	197,30
459,69	200,25
459,89	202,15
460,10	208,55
460,30	209,77
460,51	185,56
460,71	187,11
460,92	186,49
461,12	191,62
461,33	204,22
461,53	203,33
461,74	188,09
461,94	194,36
462,15	192,00
462,35	209,96
462,56	211,52
462,76	194,44
462,97	202,12
463,17	200,55
463,38	204,33
463,58	189,45
463,79	188,02
463,99	198,35
464,20	184,82
464,40	188,17
464,61	198,92
464,81	197,37
465,02	203,47
465,22	191,24
465,43	190,60
465,63	217,78
465,83	233,53
466,04	248,62
466,24	299,96
466,45	367,03
466,65	411,07
466,86	449,32
467,06	446,60
467,27	422,65
467,47	375,66
467,68	331,76
467,88	276,23
468,08	249,89
468,29	213,76
468,49	223,55
468,70	206,22
468,90	185,84
469,11	191,36
469,31	199,76
469,52	195,44
469,72	209,99
469,92	214,03
470,13	218,65
470,33	208,59
470,54	210,24
470,74	226,37
470,95	216,96
471,15	206,37
471,35	220,79
471,56	206,45
471,76	212,41
471,97	197,40
472,17	207,32
472,38	194,04
472,58	195,68
472,78	206,14
472,99	194,75
473,19	208,38
473,40	190,56
473,60	197,87
473,80	221,17
474,01	222,67
474,21	208,02
474,42	215,84
474,62	258,34
474,83	276,12
475,03	284,30
475,23	305,26
475,44	303,97
475,64	289,20
475,85	284,26
476,05	252,28
476,25	264,63
476,46	277,52
476,66	233,48
476,86	232,89
477,07	236,01
477,27	223,06
477,48	220,68
477,68	223,35
477,88	223,24
478,09	219,62
478,29	229,20
478,50	225,85
478,70	214,31
478,90	220,91
479,11	224,02
479,31	216,66
479,51	229,40
479,72	199,68
479,92	228,85
480,12	226,49
480,33	227,58
480,53	237,98
480,74	235,43
480,94	220,54
481,14	237,63
481,35	228,47
481,55	226,05
481,75	229,27
481,96	235,21
482,16	236,46
482,36	237,28
482,57	233,22
482,77	220,56
482,97	244,61
483,18	241,91
483,38	252,09
483,58	247,59
483,79	243,46
483,99	256,83
484,19	223,57
484,40	262,54
484,60	257,07
484,80	251,90
485,01	245,78
485,21	256,45
485,41	237,27
485,62	243,47
485,82	208,90
486,02	246,54
486,23	246,14
486,43	243,84
486,63	247,78
486,84	252,95
487,04	248,94
487,24	261,42
487,45	264,74
487,65	268,39
487,85	271,70
488,06	276,67
488,26	282,78
488,46	286,41
488,67	304,32
488,87	301,61
489,07	323,03
489,27	301,43
489,48	300,17
489,68	275,16
489,88	280,93
490,09	266,69
490,29	267,88
490,49	275,14
490,70	273,37
490,90	246,85
491,10	260,73
491,30	251,40
491,51	262,34
491,71	271,83
491,91	263,80
492,12	259,61
492,32	273,92
492,52	341,87
492,72	476,77
492,93	654,93
493,13	870,74
493,33	1076,83
493,53	1235,96
493,74	1251,95
493,94	1150,57
494,14	951,69
494,34	776,07
494,55	627,01
494,75	541,00
494,95	442,01
495,16	403,83
495,36	350,93
495,56	334,50
495,76	305,83
495,97	293,53
496,17	292,62
496,37	306,02
496,57	288,40
496,78	296,26
496,98	380,34
497,18	589,05
497,38	977,68
497,59	1641,44
497,79	2376,14
497,99	3140,74
498,19	3661,73
498,39	3876,57
498,60	3661,07
498,80	3152,11
499,00	2508,27
499,20	1896,64
499,41	1393,78
499,61	1020,49
499,81	798,09
500,01	601,90
500,22	481,12
500,42	368,30
500,62	354,59
500,82	312,19
501,02	305,81
501,23	312,66
501,43	291,94
501,63	273,61
501,83	299,79
502,03	282,42
502,24	279,08
502,44	272,32
502,64	281,11
502,84	283,69
503,05	284,88
503,25	295,80
503,45	283,27
503,65	299,37
503,85	293,48
504,06	299,05
504,26	280,82
504,46	296,68
504,66	288,21
504,86	315,73
505,06	305,89
505,27	325,43
505,47	325,19
505,67	331,55
505,87	326,96
506,07	337,54
506,28	332,90
506,48	334,00
506,68	329,83
506,88	312,25
507,08	312,85
507,28	312,69
507,49	297,07
507,69	325,96
507,89	296,84
508,09	310,07
508,29	313,09
508,49	301,99
508,70	320,11
508,90	316,18
509,10	324,91
509,30	300,42
509,50	311,20
509,70	320,58
509,91	297,10
510,11	307,67
510,31	304,12
510,51	313,25
510,71	317,83
510,91	306,18
511,11	330,69
511,32	309,76
511,52	320,27
511,72	321,45
511,92	314,04
512,12	336,83
512,32	331,01
512,52	325,42
512,73	313,12
512,93	331,64
513,13	324,69
513,33	333,69
513,53	323,17
513,73	339,85
513,93	323,98
514,13	364,89
514,34	439,83
514,54	581,25
514,74	762,47
514,94	956,83
515,14	1112,27
515,34	1242,02
515,54	1236,32
515,74	1155,68
515,94	1024,47
516,15	900,31
516,35	750,28
516,55	630,97
516,75	557,09
516,95	477,90
517,15	443,40
517,35	421,02
517,55	409,51
517,75	401,05
517,95	385,05
518,16	380,99
518,36	403,43
518,56	411,01
518,76	430,58
518,96	437,10
519,16	444,85
519,36	422,37
519,56	404,95
519,76	406,40
519,96	380,97
520,16	381,64
520,37	377,36
520,57	369,65
520,77	374,52
520,97	367,87
521,17	373,66
521,37	374,73
521,57	408,81
521,77	413,75
521,97	437,51
522,17	442,87
522,37	461,86
522,57	441,49
522,77	453,41
522,97	422,90
523,17	411,18
523,37	403,54
523,58	390,04
523,78	398,29
523,98	386,68
524,18	383,75
524,38	408,02
524,58	386,85
524,78	407,17
524,98	413,52
525,18	435,59
525,38	439,90
525,58	449,18
525,78	443,14
525,98	427,63
526,18	415,31
526,38	414,80
526,58	395,60
526,78	407,23
526,98	398,51
527,18	395,70
527,38	391,75
527,58	408,76
527,78	389,14
527,98	402,32
528,18	401,93
528,38	409,33
528,58	416,03
528,78	407,88
528,98	411,27
529,18	398,20
529,38	439,87
529,58	404,51
529,78	409,28
529,98	400,34
530,18	398,83
530,38	409,61
530,58	407,74
530,78	400,68
530,98	411,02
531,18	413,84
531,38	419,10
531,58	423,86
531,78	430,45
531,98	421,21
532,18	426,21
532,38	430,30
532,58	437,38
532,78	426,54
532,98	421,75
533,18	421,30
533,38	421,67
533,58	429,24
533,78	427,30
533,98	445,38
534,18	437,65
534,38	444,54
534,58	442,40
534,78	440,03
534,98	448,93
535,18	439,37
535,38	445,01
535,58	430,63
535,78	439,87
535,98	432,79
536,18	439,42
536,38	432,70
536,58	443,50
536,78	433,95
536,98	446,38
537,18	453,72
537,38	465,10
537,58	465,89
537,78	461,99
537,98	451,61
538,17	454,63
538,37	450,65
538,57	447,48
538,77	463,99
538,97	473,94
539,17	478,71
539,37	463,31
539,57	483,28
539,77	482,86
539,97	474,56
540,17	480,86
540,37	457,74
540,57	488,43
540,77	493,90
540,97	485,94
541,16	488,04
541,36	513,21
541,56	497,62
541,76	495,32
541,96	510,46
542,16	512,25
542,36	517,34
542,56	523,29
542,76	493,26
542,96	506,71
543,16	501,74
543,36	511,59
543,55	497,12
543,75	507,84
543,95	508,88
544,15	541,73
544,35	531,15
544,55	552,67
544,75	533,83
544,95	569,63
545,15	557,92
545,35	567,20
545,54	559,85
545,74	565,99
545,94	529,99
546,14	555,75
546,34	539,22
546,54	530,37
546,74	523,22
546,94	539,45
547,14	534,90
547,33	543,47
547,53	541,40
547,73	540,30
547,93	520,85
548,13	545,88
548,33	538,29
548,53	552,74
548,72	542,87
548,92	594,92
549,12	617,99
549,32	651,02
549,52	691,66
549,72	698,14
549,92	710,66
550,12	724,43
550,31	699,49
550,51	682,50
550,71	653,77
550,91	654,89
551,11	626,50
551,31	624,07
551,50	591,89
551,70	603,93
551,90	597,74
552,10	606,05
552,30	611,63
552,50	616,04
552,70	628,84
552,89	638,40
553,09	630,30
553,29	641,56
553,49	650,87
553,69	648,15
553,88	649,81
554,08	666,97
554,28	671,10
554,48	667,11
554,68	684,39
554,88	672,05
555,07	706,67
555,27	709,72
555,47	738,58
555,67	752,33
555,87	799,40
556,06	807,63
556,26	801,62
556,46	813,79
556,66	796,43
556,86	799,14
557,06	789,42
557,25	781,72
557,45	795,30
557,65	790,23
557,85	788,96
558,05	751,41
558,24	753,54
558,44	759,14
558,64	762,35
558,84	764,68
559,03	758,43
559,23	776,57
559,43	789,15
559,63	819,07
559,83	817,46
560,02	865,16
560,22	891,98
560,42	923,18
560,62	938,36
560,82	937,58
561,01	966,10
561,21	920,49
561,41	935,97
561,61	945,26
561,80	931,72
562,00	956,30
562,20	971,51
562,40	984,99
562,59	946,68
562,79	967,21
562,99	969,24
563,19	954,64
563,38	954,26
563,58	981,39
563,78	992,84
563,98	1005,00
564,17	1028,16
564,37	1040,28
564,57	1070,79
564,77	1102,85
564,96	1136,37
565,16	1127,76
565,36	1143,12
565,56	1137,01
565,75	1168,52
565,95	1155,54
566,15	1153,17
566,35	1192,93
566,54	1191,28
566,74	1205,21
566,94	1267,61
567,14	1494,18
567,33	2435,97
567,53	4199,64
567,73	6962,20
567,92	11712,66
568,12	17877,57
568,32	24241,49
568,52	30209,61
568,71	34683,70
568,91	36291,64
569,11	34433,95
569,30	30090,24
569,50	25393,56
569,70	19776,74
569,90	14934,09
570,09	11720,18
570,29	9175,80
570,49	7261,10
570,68	5584,40
570,88	4290,96
571,08	3309,07
571,27	2650,58
571,47	2218,71
571,67	2009,08
571,87	1882,45
572,06	1782,32
572,26	1793,78
572,46	1771,55
572,65	1797,17
572,85	1811,47
573,05	1864,49
573,24	1918,61
573,44	1948,93
573,64	2016,82
573,83	2062,48
574,03	2124,64
574,23	2206,44
574,42	2241,40
574,62	2296,96
574,82	2303,65
575,01	2341,37
575,21	2389,25
575,41	2441,80
575,60	2452,66
575,80	2486,92
576,00	2507,65
576,19	2574,24
576,39	2618,49
576,59	2712,05
576,78	2717,78
576,98	2776,86
577,18	2872,28
577,37	2910,51
577,57	2949,72
577,77	2985,72
577,96	3063,81
578,16	3112,25
578,35	3190,22
578,55	3211,48
578,75	3285,44
578,94	3300,03
579,14	3416,85
579,34	3462,18
579,53	3497,19
579,73	3557,18
579,93	3627,84
580,12	3697,49
580,32	3771,20
580,51	3874,72
580,71	3949,97
580,91	4042,02
581,10	4147,52
581,30	4283,43
581,50	4374,97
581,69	4463,49
581,89	4615,78
582,08	4775,06
582,28	4897,03
582,48	5100,41
582,67	5243,55
582,87	5442,75
583,06	5651,62
583,26	5848,52
583,46	6109,46
583,65	6332,66
583,85	6706,40
584,04	7110,05
584,24	7665,77
584,44	8322,86
584,63	9219,00
584,83	10059,74
585,02	11025,05
585,22	11914,64
585,42	12838,92
585,61	13491,82
585,81	14199,34
586,00	14809,93
586,20	15489,54
586,39	16096,50
586,59	17045,06
586,79	18371,34
586,98	19920,72
587,18	22388,89
587,37	38221,24
587,57	64256,45
587,76	64243,04
587,96	64253,18
588,16	64242,73
588,35	64252,77
588,55	64258,19
588,74	64269,46
588,94	64246,83
589,13	64261,98
589,33	64254,92
589,52	64263,11
589,72	64259,32
589,92	64257,27
590,11	64248,16
590,31	64258,60
590,50	64258,09
590,70	64272,53
590,89	64262,80
591,09	64245,60
591,28	64249,39
591,48	64271,40
591,67	64255,02
591,87	64262,29
592,06	64253,18
592,26	64265,16
592,46	64253,89
592,65	64249,90
592,85	64253,07
593,04	64254,81
593,24	64254,41
593,43	64269,36
593,63	64260,86
593,82	64250,21
594,02	64250,21
594,21	64248,47
594,41	64252,77
594,60	64246,21
594,80	64258,19
594,99	64264,44
595,19	64261,47
595,38	64258,91
595,58	64238,74
595,77	64263,93
595,97	64263,42
596,16	64263,42
596,36	64252,77
596,55	64255,02
596,75	64254,81
596,94	64256,97
597,14	64247,44
597,33	64253,79
597,53	64260,96
597,72	64264,64
597,92	64248,47
598,11	64251,03
598,31	64266,49
598,50	64259,42
598,70	64257,48
598,89	64268,54
599,09	64271,40
599,28	64268,02
599,48	64266,49
599,67	64255,84
599,87	64238,74
600,06	64257,78
600,26	64262,90
600,45	64263,93
600,64	64247,44
600,84	64260,65
601,03	64260,45
601,23	64252,25
601,42	64264,75
601,62	64253,79
601,81	64249,39
602,01	64263,72
602,20	64270,58
602,40	64248,16
602,59	64253,38
602,78	64259,83
602,98	64252,56
603,17	64245,50
603,37	64277,14
603,56	64250,00
603,76	64257,99
603,95	64250,92
604,15	64265,77
604,34	64258,50
604,53	64264,85
604,73	64267,31
604,92	64259,63
605,12	64267,10
605,31	64238,23
605,51	64254,81
605,70	64238,23
605,89	64248,16
606,09	64257,99
606,28	64262,60
606,48	64240,17
606,67	64249,80
606,87	64256,35
607,06	64260,14
607,25	64252,56
607,45	64248,16
607,64	64248,77
607,84	64252,56
608,03	64266,39
608,22	64242,63
608,42	64246,11
608,61	64267,72
608,81	64261,98
609,00	64265,57
609,19	64254,30
609,39	64255,84
609,58	64258,30
609,78	64267,31
609,97	64236,90
610,16	64262,70
610,36	64235,77
610,55	64256,86
610,75	64260,24
610,94	64258,40
611,13	64259,42
611,33	64251,64
611,52	64256,86
611,71	64272,32
611,91	64248,77
612,10	64250,31
612,30	64260,45
612,49	64255,63
612,68	64259,42
612,88	64252,56
613,07	64242,42
613,26	64255,84
613,46	64257,68
613,65	64272,32
613,84	64256,35
614,04	64250,00
614,23	64271,30
614,43	64249,39
614,62	64262,19
614,81	64242,63
615,01	64263,72
615,20	64261,68
615,39	64249,59
615,59	64275,60
615,78	64251,03
615,97	64274,07
616,17	64256,15
616,36	64267,31
616,55	64250,51
616,75	64265,36
616,94	64256,56
617,13	64275,19
617,33	64251,54
617,52	64262,70
617,71	64236,49
617,91	64257,48
618,10	64252,87
618,29	64261,98
618,49	64254,81
618,68	64256,76
618,87	64263,01
619,07	64263,83
619,26	64252,25
619,45	64243,14
619,65	64266,08
619,84	64267,00
620,03	64247,44
620,22	64267,92
620,42	64250,00
620,61	64264,44
620,80	64263,01
621,00	64260,75
621,19	64256,15
621,38	64243,86
621,58	64265,36
621,77	64262,70
621,96	64239,56
622,15	38074,92
622,35	64248,77
622,54	31758,61
622,73	32978,57
622,93	1662,87
623,12	21477,74
623,31	1215,97
623,50	1203,82
623,70	1191,81
623,89	1169,78
624,08	1144,61
624,28	1143,00
624,47	1147,94
624,66	1120,13
624,85	1123,66
625,05	1109,09
625,24	1106,27
625,43	1091,70
625,62	1091,23
625,82	1085,77
626,01	1060,39
626,20	1047,79
626,39	1037,58
626,59	1029,41
626,78	1027,08
626,97	1025,02
627,17	982,89
627,36	1003,22
627,55	987,75
627,74	983,41
627,93	990,88
628,13	969,32
628,32	969,06
628,51	968,61
628,70	958,27
628,90	979,28
629,09	963,39
629,28	956,64
629,47	964,05
629,67	950,19
629,86	957,21
630,05	953,61
630,24	973,54
630,44	955,34
630,63	972,84
630,82	955,16
631,01	940,02
631,20	927,58
631,40	927,00
631,59	915,50
631,78	898,09
631,97	899,41
632,16	899,67
632,36	874,88
632,55	865,34
632,74	877,18
632,93	874,58
633,13	847,49
633,32	854,50
633,51	818,03
633,70	824,32
633,89	817,18
634,09	850,08
634,28	836,08
634,47	825,78
634,66	831,59
634,85	813,46
635,04	829,41
635,24	815,97
635,43	803,58
635,62	797,30
635,81	798,62
636,00	796,20
636,20	797,52
636,39	825,57
636,58	820,48
636,77	805,46
636,96	800,82
637,15	825,96
637,35	804,16
637,54	786,22
637,73	777,11
637,92	805,98
638,11	817,01
638,30	806,60
638,50	795,99
638,69	803,57
638,88	774,50
639,07	788,79
639,26	780,52
639,45	754,72
639,64	751,08
639,84	738,36
640,03	735,84
640,22	733,92
640,41	730,85
640,60	724,94
640,79	743,04
640,98	753,18
641,18	792,29
641,37	822,84
641,56	841,46
641,75	873,01
641,94	868,48
642,13	818,99
642,32	815,69
642,52	771,12
642,71	763,71
642,90	746,44
643,09	742,90
643,28	706,96
643,47	716,74
643,66	714,65
643,85	683,90
644,04	688,29
644,24	684,14
644,43	669,91
644,62	668,15
644,81	658,59
645,00	681,91
645,19	668,38
645,38	644,23
645,57	635,15
645,76	634,58
645,96	646,40
646,15	633,54
646,34	645,07
646,53	629,03
646,72	637,21
646,91	623,33
647,10	623,00
647,29	628,36
647,48	619,29
647,67	617,28
647,86	593,25
648,05	598,80
648,25	588,03
648,44	588,95
648,63	601,67
648,82	602,71
649,01	620,90
649,20	645,16
649,39	665,76
649,58	699,15
649,77	717,93
649,96	720,68
650,15	699,89
650,34	696,76
650,53	673,71
650,72	644,34
650,91	619,10
651,11	615,49
651,30	588,73
651,49	594,12
651,68	558,12
651,87	561,53
652,06	556,54
652,25	543,91
652,44	549,14
652,63	543,39
652,82	540,97
653,01	529,68
653,20	529,64
653,39	538,16
653,58	529,54
653,77	541,68
653,96	528,25
654,15	525,17
654,34	520,48
654,53	520,82
654,72	518,69
654,91	512,33
655,10	510,39
655,29	509,17
655,48	497,36
655,67	489,37
655,86	499,28
656,05	506,10
656,24	512,95
656,43	512,95
656,62	486,62
656,81	504,05
657,00	486,91
657,19	484,93
657,38	469,14
657,57	468,09
657,76	468,81
657,95	469,18
658,14	465,17
658,33	452,48
658,52	467,18
658,71	464,13
658,90	465,98
659,09	457,56
659,28	444,41
659,47	458,62
659,66	463,29
659,85	437,51
660,04	452,99
660,23	476,88
660,42	453,32
660,61	472,94
660,80	462,22
660,99	463,92
661,18	435,69
661,37	453,53
661,56	433,89
661,75	440,32
661,94	457,82
662,13	439,67
662,32	424,74
662,51	427,07
662,70	436,94
662,89	433,94
663,08	424,76
663,27	417,94
663,46	404,01
663,65	399,48
663,83	414,78
664,02	409,09
664,21	390,58
664,40	396,77
664,59	389,84
664,78	396,13
664,97	398,96
665,16	385,12
665,35	386,39
665,54	391,70
665,73	389,86
665,92	395,10
666,11	397,45
666,30	413,50
666,49	399,79
666,67	411,52
666,86	412,95
667,05	439,38
667,24	448,06
667,43	477,53
667,62	483,50
667,81	501,87
668,00	511,91
668,19	489,24
668,38	466,61
668,57	444,80
668,76	428,37
668,94	411,05
669,13	395,80
669,32	398,36
669,51	390,39
669,70	383,13
669,89	375,07
670,08	334,20
670,27	345,53
670,46	350,45
670,64	343,52
670,83	354,34
671,02	318,11
671,21	345,34
671,40	323,98
671,59	349,95
671,78	340,88
671,97	331,07
672,16	340,11
672,34	328,36
672,53	334,48
672,72	330,27
672,91	332,91
673,10	329,03
673,29	313,05
673,48	304,69
673,66	315,69
673,85	309,41
674,04	319,86
674,23	342,57
674,42	354,26
674,61	374,49
674,80	431,95
674,98	479,84
675,17	506,63
675,36	553,12
675,55	545,36
675,74	538,81
675,93	508,78
676,12	456,33
676,30	415,48
676,49	410,77
676,68	386,06
676,87	375,49
677,06	377,05
677,25	346,10
677,43	334,81
677,62	323,48
677,81	309,22
678,00	319,78
678,19	302,97
678,37	285,01
678,56	279,85
678,75	285,27
678,94	291,90
679,13	286,26
679,32	278,21
679,50	272,28
679,69	262,39
679,88	279,44
680,07	271,96
680,26	251,45
680,44	267,73
680,63	270,37
680,82	255,53
681,01	269,74
681,20	254,17
681,38	254,57
681,57	279,07
681,76	268,04
681,95	245,70
682,14	258,23
682,32	253,68
682,51	260,21
682,70	249,17
682,89	256,05
683,07	256,95
683,26	245,12
683,45	235,32
683,64	249,09
683,83	254,73
684,01	256,05
684,20	256,96
684,39	249,45
684,58	242,32
684,76	253,91
684,95	241,82
685,14	248,23
685,33	240,61
685,52	256,78
685,70	254,28
685,89	245,34
686,08	249,31
686,27	275,74
686,45	314,78
686,64	338,53
686,83	375,09
687,02	427,93
687,20	437,75
687,39	462,28
687,58	434,27
687,76	418,62
687,95	392,00
688,14	371,40
688,33	356,22
688,51	331,27
688,70	318,04
688,89	306,57
689,08	300,79
689,26	282,84
689,45	294,04
689,64	263,88
689,83	270,14
690,01	257,46
690,20	251,54
690,39	233,80
690,57	251,07
690,76	236,17
690,95	234,11
691,14	222,52
691,32	250,38
691,51	236,07
691,70	233,20
691,88	238,74
692,07	234,69
692,26	225,19
692,44	234,78
692,63	247,90
692,82	250,57
693,01	266,28
693,19	279,98
693,38	286,94
693,57	309,98
693,75	314,05
693,94	321,90
694,13	326,00
694,31	328,80
694,50	302,00
694,69	307,43
694,87	296,05
695,06	334,66
695,25	532,08
695,43	1313,03
695,62	2935,48
695,81	5210,75
695,99	8216,52
696,18	11721,64
696,37	15108,06
696,55	17163,83
696,74	17466,92
696,93	16880,49
697,11	15197,93
697,30	12706,60
697,49	10228,64
697,67	8257,88
697,86	6916,87
698,05	5796,99
698,23	4857,98
698,42	4046,07
698,61	3418,92
698,79	2888,33
698,98	2428,03
699,17	1955,96
699,35	1531,19
699,54	1138,55
699,72	858,87
699,91	617,94
700,10	496,28
700,28	393,00
700,47	322,03
700,66	300,84
700,84	275,86
701,03	259,64
701,21	263,21
701,40	247,44
701,59	247,28
701,77	252,70
701,96	254,22
702,15	271,32
702,33	296,68
702,52	323,17
702,70	362,66
702,89	401,80
703,08	421,57
703,26	410,23
703,45	413,95
703,63	392,93
703,82	364,63
704,01	333,43
704,19	342,97
704,38	305,36
704,56	299,00
704,75	280,43
704,94	285,90
705,12	293,08
705,31	322,81
705,49	536,82
705,68	1219,62
705,86	2423,19
706,05	4087,22
706,24	6112,76
706,42	8354,22
706,61	10201,56
706,79	11110,20
706,98	11112,16
707,17	10513,00
707,35	9341,56
707,54	7711,91
707,72	6240,10
707,91	5094,69
708,09	4330,69
708,28	3608,68
708,46	3079,16
708,65	2571,21
708,84	2169,47
709,02	1863,83
709,21	1562,98
709,39	1306,31
709,58	1019,96
709,76	802,93
709,95	618,19
710,13	488,36
710,32	423,10
710,50	380,78
710,69	319,24
710,88	289,58
711,06	265,75
711,25	264,77
711,43	273,26
711,62	270,18
711,80	251,76
711,99	260,60
712,17	245,48
712,36	245,79
712,54	255,42
712,73	231,67
712,91	247,13
713,10	231,94
713,28	235,75
713,47	247,72
713,65	304,61
713,84	396,30
714,02	530,14
714,21	726,51
714,39	945,52
714,58	1136,93
714,76	1203,86
714,95	1197,29
715,13	1159,94
715,32	1030,59
715,50	889,41
715,69	767,56
715,87	646,17
716,06	584,54
716,24	529,43
716,43	449,96
716,61	429,69
716,80	385,26
716,98	371,25
717,17	344,03
717,35	322,27
717,54	300,95
717,72	270,71
717,91	262,44
718,09	253,86
718,28	228,90
718,46	217,74
718,65	226,44
718,83	201,90
719,01	228,28
719,20	206,35
719,38	232,90
719,57	197,71
719,75	226,07
719,94	237,56
720,12	219,35
720,31	237,15
720,49	244,84
720,68	243,95
720,86	270,12
721,04	253,36
721,23	255,10
721,41	243,34
721,60	226,79
721,78	226,62
721,97	239,01
722,15	216,31
722,34	222,39
722,52	229,91
722,70	210,07
722,89	222,02
723,07	218,78
723,26	225,88
723,44	207,09
723,63	219,88
723,81	202,91
723,99	221,38
724,18	211,26
724,36	226,61
724,55	214,01
724,73	205,83
724,91	201,55
725,10	207,66
725,28	208,83
725,47	210,46
725,65	213,74
725,83	226,44
726,02	280,85
726,20	444,81
726,39	761,28
726,57	1226,82
726,75	1851,04
726,94	2569,37
727,12	3218,96
727,31	3561,06
727,49	3683,47
727,67	3514,63
727,86	3176,93
728,04	2695,95
728,23	2192,69
728,41	1802,33
728,59	1523,41
728,78	1277,94
728,96	1117,03
729,14	923,89
729,33	825,52
729,51	679,59
729,69	645,17
729,88	588,61
730,06	521,87
730,25	464,57
730,43	399,30
730,61	366,28
730,80	336,63
730,98	312,90
731,16	292,62
731,35	278,79
731,53	274,61
731,71	259,27
731,90	244,66
732,08	229,59
732,26	243,65
732,45	235,49
732,63	229,98
732,81	237,73
733,00	225,99
733,18	222,67
733,36	219,51
733,55	216,53
733,73	209,15
733,91	220,60
734,10	202,10
734,28	234,32
734,46	228,91
734,65	258,54
734,83	260,13
735,01	274,23
735,20	294,48
735,38	306,35
735,56	311,50
735,75	307,11
735,93	284,66
736,11	313,62
736,30	290,64
736,48	328,71
736,66	374,71
736,84	418,71
737,03	589,14
737,21	1173,64
737,39	2571,88
737,58	4538,86
737,76	7225,11
737,94	10271,49
738,12	13725,61
738,31	16191,21
738,49	17379,18
738,67	17256,56
738,86	16045,28
739,04	14143,77
739,22	11692,41
739,40	9442,59
739,59	7843,09
739,77	6502,68
739,95	5455,83
740,14	4589,22
740,32	3923,07
740,50	3384,03
740,68	2981,96
740,87	2622,33
741,05	2319,65
741,23	1985,00
741,41	1676,01
741,60	1328,92
741,78	1024,22
741,96	777,23
742,14	596,13
742,33	480,12
742,51	408,07
742,69	356,43
742,87	330,73
743,06	312,30
743,24	313,39
743,42	289,89
743,60	305,91
743,79	298,20
743,97	279,73
744,15	278,89
744,33	282,20
744,52	255,05
744,70	239,31
744,88	250,84
745,06	228,72
745,24	238,22
745,43	227,46
745,61	235,15
745,79	236,33
745,97	231,50
746,16	221,14
746,34	227,70
746,52	237,87
746,70	235,07
746,88	263,00
747,07	239,94
747,25	246,86
747,43	247,54
747,61	246,24
747,79	245,35
747,98	262,37
748,16	281,13
748,34	286,06
748,52	292,96
748,70	282,78
748,89	307,12
749,07	454,05
749,25	1026,53
749,43	2177,26
749,61	3740,13
749,79	5906,35
749,98	8301,90
750,16	11050,99
750,34	13177,37
750,52	15139,94
750,70	16504,52
750,88	17873,93
751,07	18779,30
751,25	19528,16
751,43	19553,34
751,61	19025,55
751,79	17819,23
751,97	16077,01
752,16	13748,68
752,34	11443,99
752,52	9421,96
752,70	8071,09
752,88	6950,18
753,06	6015,88
753,25	5285,67
753,43	4636,28
753,61	3994,68
753,79	3484,13
753,97	2956,88
754,15	2552,43
754,33	2153,33
754,52	1820,60
754,70	1494,48
754,88	1146,53
755,06	893,67
755,24	687,97
755,42	532,06
755,60	438,80
755,78	374,20
755,97	335,96
756,15	296,42
756,33	293,94
756,51	282,84
756,69	293,83
756,87	262,35
757,05	264,09
757,23	257,36
757,41	248,36
757,60	265,14
757,78	248,56
757,96	263,99
758,14	260,76
758,32	270,24
758,50	266,59
758,68	263,32
758,86	269,94
759,04	273,25
759,22	275,98
759,41	251,91
759,59	271,32
759,77	261,77
759,95	264,94
760,13	275,71
760,31	268,80
760,49	288,83
760,67	320,11
760,85	301,33
761,03	304,17
761,21	323,38
761,39	333,59
761,57	335,94
761,76	352,11
761,94	462,66
762,12	932,39
762,30	2923,38
762,48	7700,57
762,66	15047,46
762,84	24810,61
763,02	36353,73
763,20	43227,72
763,38	45508,66
763,56	46776,79
763,74	46880,95
763,92	46131,91
764,10	44403,75
764,28	42315,96
764,46	40291,01
764,64	38831,81
764,82	36282,12
765,00	24925,02
765,19	18694,12
765,37	16979,90
765,55	15766,08
765,73	14993,24
765,91	14607,05
766,09	14621,89
766,27	14749,25
766,45	14461,91
766,63	13646,58
766,81	12239,68
766,99	10421,97
767,17	8428,54
767,35	6478,13
767,53	5009,76
767,71	3956,99
767,89	3170,68
768,07	2644,48
768,25	2273,41
768,43	1965,41
768,61	1795,75
768,79	1800,97
768,97	2013,94
769,15	2330,24
769,33	2857,57
769,51	3438,45
769,69	3982,16
769,87	4224,64
770,05	4198,56
770,23	3943,86
770,41	3515,52
770,59	2968,90
770,77	2399,26
770,95	2038,86
771,13	2270,81
771,31	3413,68
771,49	5753,92
771,67	8915,09
771,85	13149,76
772,03	17926,74
772,21	22352,19
772,38	24750,43
772,56	25127,71
772,74	23848,94
772,92	21245,72
773,10	17764,58
773,28	14188,88
773,46	11284,67
773,64	9618,07
773,82	8305,76
774,00	7361,00
774,18	6463,98
774,36	5820,71
774,54	5187,64
774,72	4648,23
774,90	4139,24
775,08	3730,06
775,26	3330,54
775,44	3009,08
775,62	2601,48
775,80	2173,48
775,97	1740,94
776,15	1353,19
776,33	1012,24
776,51	763,03
776,69	586,34
776,87	461,55
777,05	393,67
777,23	340,74
777,41	314,30
777,59	290,85
777,77	278,48
777,95	263,96
778,13	261,40
778,30	260,08
778,48	226,77
778,66	258,12
778,84	236,11
779,02	251,96
779,20	259,16
779,38	243,86
779,56	237,65
779,74	253,67
779,92	252,59
780,09	252,54
780,27	223,08
780,45	240,11
780,63	247,23
780,81	220,12
780,99	225,28
781,17	233,32
781,35	228,12
781,52	243,06
781,70	219,55
781,88	226,27
782,06	214,46
782,24	231,17
782,42	237,09
782,60	208,24
782,78	229,84
782,95	223,45
783,13	230,01
783,31	224,50
783,49	213,50
783,67	207,91
783,85	213,47
784,03	206,76
784,20	207,73
784,38	208,21
784,56	211,07
784,74	219,36
784,92	217,66
785,10	216,77
785,28	222,60
785,45	204,74
785,63	213,20
785,81	227,77
785,99	242,51
786,17	215,80
786,35	223,63
786,52	211,98
786,70	226,14
786,88	219,82
787,06	225,95
787,24	207,56
787,41	223,28
787,59	229,34
787,77	211,27
787,95	239,28
788,13	209,75
788,31	211,08
788,48	234,83
788,66	225,45
788,84	234,47
789,02	229,74
789,20	227,68
789,37	243,91
789,55	227,73
789,73	243,57
789,91	203,87
790,09	235,00
790,26	226,85
790,44	232,35
790,62	203,06
790,80	236,81
790,98	223,88
791,15	225,93
791,33	234,22
791,51	225,47
791,69	225,77
791,86	235,51
792,04	244,82
792,22	232,32
792,40	236,73
792,58	234,47
792,75	246,32
792,93	238,28
793,11	255,05
793,29	273,36
793,46	407,09
793,64	938,20
793,82	2140,75
794,00	3890,44
794,17	6086,31
794,35	8704,28
794,53	11176,33
794,71	13016,39
794,88	13467,16
795,06	13123,80
795,24	11984,80
795,42	10429,58
795,59	8551,40
795,77	7065,80
795,95	6072,13
796,13	5402,55
796,30	4788,96
796,48	4343,46
796,66	3908,48
796,83	3550,42
797,01	3176,36
797,19	2916,70
797,37	2663,11
797,54	2384,90
797,72	2176,19
797,90	1987,49
798,08	1785,84
798,25	1597,48
798,43	1379,12
798,61	1137,08
798,78	926,46
798,96	723,57
799,14	635,70
799,31	657,72
799,49	965,29
799,67	1628,35
799,85	2603,58
800,02	3906,36
800,20	5566,66
800,38	7643,61
800,55	9657,20
800,73	11757,20
800,91	13754,05
801,08	15639,48
801,26	16915,03
801,44	17165,83
801,61	16559,21
801,79	15461,94
801,97	13793,54
802,15	12067,64
802,32	10134,15
802,50	8807,89
802,68	7720,79
802,85	6991,01
803,03	6261,02
803,21	5740,51
803,38	5177,22
803,56	4696,07
803,74	4269,14
803,91	3835,43
804,09	3484,39
804,26	3162,09
804,44	2797,63
804,62	2486,97
804,79	2167,86
804,97	1886,25
805,15	1570,77
805,32	1317,94
805,50	1044,28
805,68	826,69
805,85	628,15
806,03	527,76
806,21	433,84
806,38	394,35
806,56	339,34
806,73	321,39
806,91	312,93
807,09	303,57
807,26	314,79
807,44	306,57
807,62	310,23
807,79	296,87
807,97	311,62
808,14	332,44
808,32	322,81
808,50	339,20
808,67	358,87
808,85	411,89
809,02	661,65
809,20	1437,11
809,38	2938,14
809,55	4941,59
809,73	7514,08
809,90	10459,11
810,08	13610,63
810,26	16875,44
810,43	20479,07
810,61	25151,53
810,78	30790,87
810,96	36505,37
811,14	41799,00
811,31	43298,88
811,49	44095,21
811,66	44096,72
811,84	43725,38
812,02	42849,16
812,19	41542,80
812,37	35687,34
812,54	29180,23
812,72	25987,48
812,89	23402,29
813,07	21314,13
813,25	19279,17
813,42	17552,36
813,60	15864,88
813,77	14564,71
813,95	13020,18
814,12	11939,53
814,30	10615,91
814,47	9490,09
814,65	8515,29
814,83	7681,33
815,00	6817,52
815,18	5969,73
815,35	5082,65
815,53	4169,28
815,70	3279,56
815,88	2489,51
816,05	1868,49
816,23	1422,74
816,40	1085,98
816,58	908,59
816,75	884,40
816,93	1211,24
817,10	2396,85
817,28	4987,80
817,46	8729,05
817,63	13641,77
817,81	19429,31
817,98	25772,82
818,16	31514,90
818,33	37177,33
818,51	42249,54
818,68	48111,20
818,86	54122,42
819,03	60034,08
819,21	62592,60
819,38	64232,37
819,56	64258,68
819,73	63708,66
819,91	61891,96
820,08	59337,14
820,26	51721,75
820,43	45177,06
820,61	39971,89
820,78	36212,00
820,96	32827,51
821,13	29797,75
821,31	27021,64
821,48	24459,25
821,66	22213,11
821,83	20257,87
822,00	18290,48
822,18	16344,59
822,35	14350,61
822,53	12796,66
822,70	11177,77
822,88	9872,84
823,05	8758,53
823,23	7575,12
823,40	6347,65
823,58	5139,69
823,75	3966,49
823,93	3023,62
824,10	2233,18
824,28	1621,89
824,45	1200,88
824,62	890,66
824,80	716,66
824,97	659,45
825,15	696,56
825,32	996,79
825,50	1643,87
825,67	2588,01
825,85	3715,24
826,02	5004,33
826,19	6188,68
826,37	6998,23
826,54	7301,72
826,72	7258,48
826,89	6825,23
827,07	6255,61
827,24	5459,35
827,41	4788,09
827,59	4249,56
827,76	3889,43
827,94	3475,05
828,11	3179,01
828,28	2938,41
828,46	2670,38
828,63	2466,36
828,81	2254,18
828,98	2087,17
829,15	1878,62
829,33	1716,98
829,50	1583,41
829,68	1432,85
829,85	1312,78
830,02	1212,17
830,20	1093,12
830,37	972,47
830,55	850,34
830,72	688,56
830,89	552,28
831,07	455,67
831,24	379,12
831,42	312,14
831,59	271,37
831,76	252,78
831,94	226,77
832,11	216,38
832,28	211,90
832,46	197,25
832,63	189,99
832,81	189,52
832,98	177,95
833,15	172,60
833,33	176,54
833,50	177,86
833,67	166,61
833,85	177,76
834,02	171,02
834,19	169,41
834,37	167,03
834,54	157,39
834,71	167,97
834,89	144,73
835,06	162,44
835,23	170,36
835,41	156,29
835,58	155,58
835,75	146,12
835,93	157,91
836,10	154,35
836,27	172,40
836,45	165,92
836,62	162,50
836,79	163,00
836,97	168,29
837,14	174,30
837,31	162,92
837,49	157,10
837,66	171,78
837,83	176,17
838,01	162,81
838,18	167,89
838,35	187,31
838,53	182,43
838,70	178,61
838,87	186,53
839,04	211,69
839,22	215,63
839,39	283,63
839,56	457,27
839,74	843,90
839,91	1611,56
840,08	2689,71
840,26	3962,99
840,43	5421,46
840,60	6831,04
840,77	7922,01
840,95	8613,29
841,12	8904,20
841,29	9011,07
841,46	9163,54
841,64	9722,41
841,81	10344,71
841,98	11492,32
842,16	12841,23
842,33	14226,63
842,50	14906,00
842,67	15203,06
842,85	14625,54
843,02	14034,58
843,19	12946,22
843,36	11724,92
843,54	10545,81
843,71	9639,58
843,88	8880,81
844,05	8208,19
844,23	7474,80
844,40	6879,26
844,57	6282,24
844,74	5827,50
844,92	5266,84
845,09	4768,21
845,26	4290,65
845,43	3826,59
845,61	3410,93
845,78	3008,12
845,95	2689,73
846,12	2414,95
846,29	2136,54
846,47	1932,80
846,64	1657,92
846,81	1382,05
846,98	1092,04
847,16	849,21
847,33	649,16
847,50	494,53
847,67	379,23
847,84	307,79
848,02	259,54
848,19	227,73
848,36	184,56
848,53	175,63
848,70	188,04
848,88	175,05
849,05	161,02
849,22	156,89
849,39	142,85
849,56	151,58
849,74	152,43
849,91	132,18
850,08	148,57
850,25	130,47
850,42	144,35
850,60	154,55
850,77	180,57
850,94	222,64
851,11	295,14
851,28	461,79
851,45	722,81
851,63	1105,86
851,80	1525,93
851,97	1965,43
852,14	2331,28
852,31	2654,38
852,48	2734,33
852,66	2760,82
852,83	2601,15
853,00	2436,67
853,17	2201,34
853,34	1983,10
853,51	1786,20
853,68	1699,73
853,86	1536,28
854,03	1447,82
854,20	1320,77
854,37	1214,89
854,54	1129,01
854,71	1034,12
854,88	946,17
855,06	895,14
855,23	808,82
855,40	785,20
855,57	704,44
855,74	644,56
855,91	610,05
856,08	566,79
856,25	503,08
856,43	435,94
856,60	401,45
856,77	338,64
856,94	308,84
857,11	235,23
857,28	214,00
857,45	178,93
857,62	158,99
857,79	141,57
857,97	125,87
858,14	135,47
858,31	122,71
858,48	125,54
858,65	108,78
858,82	116,83
858,99	106,02
859,16	111,08
859,33	114,09
859,50	106,70
859,67	105,51
859,85	109,70
860,02	113,11
860,19	103,93
860,36	105,69
860,53	92,63
860,70	101,12
860,87	94,96
861,04	112,62
861,21	115,43
861,38	102,29
861,55	106,35
861,72	105,64
861,89	99,92
862,06	106,98
862,23	101,67
862,41	108,69
862,58	125,78
862,75	103,98
862,92	95,96
863,09	133,79
863,26	111,97
863,43	114,25
863,60	110,67
863,77	92,17
863,94	121,94
864,11	107,22
864,28	97,78
864,45	98,23
864,62	98,93
864,79	102,68
864,96	119,07
865,13	101,85
865,30	103,43
865,47	97,59
865,64	102,63
865,81	108,34
865,98	117,90
866,15	143,34
866,32	175,86
866,49	216,38
866,66	269,39
866,83	335,24
867,00	364,14
867,17	400,01
867,34	443,42
867,51	457,61
867,68	430,36
867,85	419,09
868,02	379,51
868,19	364,44
868,36	321,05
868,53	311,48
868,70	288,15
868,87	280,72
869,04	281,64
869,21	252,14
869,38	236,35
869,55	236,43
869,72	233,79
869,89	210,62
870,06	204,18
870,23	180,24
870,40	197,46
870,57	170,76
870,74	186,00
870,91	164,76
871,08	166,99
871,25	158,61
871,42	133,82
871,59	144,95
871,76	116,73
871,93	109,76
872,10	109,93
872,27	95,71
872,44	95,40
872,60	97,33
872,77	95,99
872,94	105,91
873,11	97,03
873,28	84,02
873,45	78,79
873,62	72,02
873,79	88,09
873,96	80,30
874,13	103,28
874,30	88,07
874,47	81,99
874,64	81,35
874,81	85,13
874,97	86,12
875,14	65,22
875,31	86,98
875,48	71,17
875,65	82,87
875,82	71,94
875,99	89,67
876,16	95,13
876,33	70,07
876,50	77,94
876,67	96,37
876,83	100,82
877,00	73,93
877,17	73,20
877,34	71,74
877,51	86,34
877,68	91,04
877,85	95,00
878,02	80,94
878,19	82,04
878,35	81,00
878,52	81,43
878,69	77,28
878,86	80,94
879,03	86,70
879,20	69,02
879,37	85,95
879,54	87,45
879,70	67,72
879,87	80,36
880,04	79,17
880,21	71,35
880,38	61,47
880,55	84,66
880,72	83,79
880,89	77,47
881,05	88,67
881,22	67,71
881,39	73,89
881,56	73,46
881,73	84,53
881,90	81,53
882,06	89,34
882,23	71,88
882,40	68,88
882,57	71,60
882,74	82,14
882,91	88,57
883,07	99,77
883,24	77,17
883,41	78,89
883,58	53,83
883,75	72,88
883,92	65,85
884,08	62,97
884,25	76,33
884,42	77,42
884,59	67,86
884,76	66,92
884,92	72,93
885,09	65,32
885,26	82,16
885,43	78,60
885,60	80,22
885,76	87,95
885,93	81,18
886,10	71,31
886,27	69,56
886,44	64,04
886,60	62,08
886,77	65,06
886,94	62,02
887,11	84,88
887,28	72,51
887,44	74,35
887,61	70,71
887,78	69,83
887,95	64,69
888,12	74,88
888,28	68,66
888,45	88,08
888,62	64,12
888,79	76,37
888,95	64,40
889,12	83,78
889,29	68,64
889,46	72,47
889,62	64,77
889,79	59,28
889,96	74,83
890,13	63,41
890,29	56,60
890,46	68,52
890,63	83,13
890,80	57,19
890,96	63,41
891,13	67,48
891,30	69,83
891,47	67,63
891,63	62,59
891,80	61,82
891,97	67,81
892,14	49,85
892,30	60,60
892,47	58,14
892,64	72,91
892,80	62,49
892,97	53,88
893,14	60,32
893,31	62,13
893,47	85,32
893,64	80,54
893,81	57,93
893,97	71,13
894,14	71,00
>>>>>End Processed Spectral Data<<<<<
