SpectraSuite Datei
++++++++++++++++++++++++++++++++++++
Datum: Wed Dec 06 17:05:44 CET 2017
Benutzer: Praktikum-Pc1
Dark-Spektrum vorhanden: Ja
Referenz-Spektrum vorhanden: Ja
Zahl der probierten Teilspektren: 1
Spektrometer: USB4H10187
Integrationszeit (usec): 5000 (USB4H10187)
Spektren Durchschnitt berechnet: 54 (USB4H10187)
Boxcar Glättung: 0 (USB4H10187)
Dunkelstromkorrektur: Nein (USB4H10187)
Puls/Lampe aktiviert: Nein (USB4H10187)
Correct for Detector Non-linearity: Nein (USB4H10187)
Streulichtkorrektur: Nein (USB4H10187)
Anzahl Pixel in verarbeitetem Spektrum: 3648
>>>>>Begin Processed Spectral Data<<<<<
176,80	18,80
177,02	18,80
177,24	18,80
177,46	7,11
177,68	27,52
177,91	7,29
178,13	6,51
178,35	18,48
178,57	35,23
178,79	15,94
179,02	20,59
179,24	2,20
179,46	14,35
179,68	8,06
179,90	15,75
180,12	3,48
180,35	11,42
180,57	1,05
180,79	1,62
181,01	-9,41
181,23	8,13
181,46	4,31
181,68	18,62
181,90	13,67
182,12	18,60
182,34	20,76
182,56	14,39
182,79	9,78
183,01	8,03
183,23	-5,90
183,45	16,78
183,67	10,26
183,89	1,73
184,12	27,61
184,34	7,51
184,56	12,67
184,78	12,98
185,00	22,32
185,22	13,55
185,45	5,04
185,67	18,42
185,89	3,49
186,11	19,99
186,33	20,87
186,55	11,50
186,77	17,06
187,00	7,28
187,22	14,16
187,44	14,15
187,66	26,16
187,88	11,12
188,10	7,91
188,32	11,49
188,55	1,45
188,77	25,30
188,99	15,72
189,21	13,58
189,43	7,11
189,65	6,09
189,87	18,10
190,10	17,42
190,32	9,41
190,54	19,51
190,76	14,42
190,98	5,45
191,20	25,80
191,42	-2,89
191,64	-9,90
191,87	12,41
192,09	14,15
192,31	6,08
192,53	10,30
192,75	26,20
192,97	5,93
193,19	19,00
193,41	8,31
193,64	-6,60
193,86	16,60
194,08	-8,06
194,30	12,47
194,52	8,48
194,74	5,20
194,96	11,04
195,18	0,81
195,40	9,57
195,63	13,51
195,85	4,11
196,07	14,12
196,29	5,07
196,51	16,84
196,73	12,71
196,95	-0,04
197,17	24,79
197,39	21,71
197,61	16,98
197,84	13,85
198,06	-0,71
198,28	24,29
198,50	-1,31
198,72	24,25
198,94	11,62
199,16	19,29
199,38	11,91
199,60	15,09
199,82	-3,34
200,04	13,17
200,26	8,29
200,49	11,74
200,71	22,76
200,93	35,40
201,15	-2,98
201,37	9,40
201,59	6,00
201,81	7,04
202,03	7,21
202,25	14,90
202,47	23,49
202,69	9,35
202,91	25,77
203,13	2,32
203,35	9,99
203,58	13,76
203,80	20,42
204,02	23,36
204,24	8,32
204,46	0,71
204,68	14,19
204,90	12,74
205,12	9,23
205,34	11,04
205,56	25,96
205,78	-4,78
206,00	-1,98
206,22	0,50
206,44	-4,19
206,66	8,11
206,88	7,41
207,10	16,64
207,32	12,53
207,54	-0,58
207,76	9,08
207,99	14,99
208,21	9,69
208,43	6,73
208,65	13,10
208,87	7,13
209,09	-0,99
209,31	8,45
209,53	3,12
209,75	10,60
209,97	10,63
210,19	7,08
210,41	5,05
210,63	18,12
210,85	4,32
211,07	26,34
211,29	5,47
211,51	10,57
211,73	15,71
211,95	19,18
212,17	11,57
212,39	9,41
212,61	23,52
212,83	-0,33
213,05	15,33
213,27	10,26
213,49	12,06
213,71	12,70
213,93	33,90
214,15	1,99
214,37	4,79
214,59	16,44
214,81	2,80
215,03	22,09
215,25	5,01
215,47	-0,43
215,69	12,85
215,91	4,90
216,13	12,30
216,35	24,06
216,57	-2,77
216,79	10,00
217,01	-1,30
217,23	18,03
217,45	4,93
217,67	10,91
217,89	4,62
218,11	12,93
218,33	1,93
218,55	-3,73
218,77	16,43
218,99	12,75
219,21	14,83
219,43	-1,24
219,65	7,48
219,87	14,57
220,09	19,34
220,31	7,80
220,53	-1,71
220,75	2,70
220,97	8,18
221,19	9,87
221,41	19,83
221,63	12,77
221,85	10,83
222,06	12,10
222,28	8,49
222,50	14,09
222,72	5,94
222,94	15,62
223,16	11,75
223,38	3,95
223,60	2,46
223,82	12,38
224,04	5,76
224,26	17,67
224,48	22,10
224,70	1,59
224,92	12,62
225,14	5,09
225,36	14,75
225,58	9,71
225,80	-1,03
226,02	7,42
226,24	8,97
226,45	7,98
226,67	4,52
226,89	19,14
227,11	1,82
227,33	15,58
227,55	13,17
227,77	8,03
227,99	30,04
228,21	9,56
228,43	3,55
228,65	0,20
228,87	16,00
229,09	15,66
229,31	2,51
229,52	9,23
229,74	25,60
229,96	12,85
230,18	15,66
230,40	-5,46
230,62	3,28
230,84	9,25
231,06	11,90
231,28	19,63
231,50	24,22
231,72	11,58
231,94	5,58
232,15	16,22
232,37	26,75
232,59	5,07
232,81	30,29
233,03	-5,78
233,25	7,93
233,47	7,23
233,69	8,86
233,91	4,07
234,13	13,36
234,34	3,43
234,56	13,74
234,78	8,84
235,00	6,94
235,22	10,32
235,44	7,72
235,66	15,10
235,88	6,72
236,10	6,46
236,31	15,33
236,53	17,07
236,75	11,55
236,97	10,78
237,19	-3,13
237,41	18,89
237,63	2,89
237,85	8,73
238,07	1,21
238,28	21,35
238,50	9,25
238,72	11,48
238,94	27,44
239,16	17,49
239,38	12,98
239,60	10,89
239,81	9,34
240,03	21,62
240,25	12,27
240,47	12,98
240,69	12,31
240,91	14,75
241,13	2,28
241,34	4,44
241,56	15,87
241,78	19,37
242,00	9,00
242,22	17,79
242,44	-2,68
242,66	15,03
242,87	-8,58
243,09	5,76
243,31	15,42
243,53	11,28
243,75	21,58
243,97	16,26
244,19	20,41
244,40	12,09
244,62	-5,89
244,84	24,49
245,06	15,46
245,28	-2,42
245,50	22,76
245,71	2,94
245,93	8,37
246,15	18,19
246,37	12,92
246,59	6,30
246,81	9,64
247,02	-6,86
247,24	19,03
247,46	28,32
247,68	-6,05
247,90	-4,63
248,11	12,67
248,33	11,62
248,55	10,11
248,77	13,27
248,99	10,72
249,21	3,13
249,42	14,62
249,64	18,47
249,86	12,86
250,08	19,55
250,30	17,07
250,51	16,20
250,73	15,70
250,95	14,15
251,17	10,11
251,39	3,13
251,60	9,51
251,82	-5,06
252,04	15,95
252,26	5,55
252,48	12,76
252,69	30,75
252,91	3,37
253,13	10,93
253,35	34,88
253,57	21,09
253,78	6,33
254,00	17,54
254,22	-3,01
254,44	-1,40
254,65	5,03
254,87	8,97
255,09	13,90
255,31	13,41
255,53	-6,41
255,74	6,23
255,96	18,89
256,18	11,52
256,40	14,92
256,61	5,90
256,83	6,42
257,05	14,24
257,27	14,72
257,48	9,27
257,70	19,21
257,92	22,16
258,14	19,16
258,36	4,02
258,57	6,09
258,79	16,69
259,01	10,07
259,23	-1,83
259,44	4,40
259,66	18,73
259,88	8,63
260,10	5,01
260,31	4,14
260,53	16,71
260,75	21,96
260,97	8,09
261,18	0,14
261,40	15,48
261,62	12,09
261,84	19,52
262,05	3,26
262,27	16,95
262,49	-3,31
262,71	18,17
262,92	17,87
263,14	4,64
263,36	18,39
263,57	0,85
263,79	12,92
264,01	2,87
264,23	16,94
264,44	18,63
264,66	9,63
264,88	-1,06
265,10	16,27
265,31	17,27
265,53	3,20
265,75	7,79
265,96	13,38
266,18	17,13
266,40	15,32
266,62	22,46
266,83	22,27
267,05	4,15
267,27	22,03
267,48	9,50
267,70	26,39
267,92	10,23
268,14	20,25
268,35	19,52
268,57	2,05
268,79	24,10
269,00	11,41
269,22	-1,15
269,44	18,82
269,65	10,22
269,87	7,07
270,09	14,19
270,31	-0,21
270,52	8,08
270,74	19,58
270,96	13,71
271,17	7,13
271,39	4,73
271,61	11,28
271,82	19,31
272,04	31,06
272,26	21,57
272,47	12,08
272,69	20,70
272,91	6,28
273,12	28,58
273,34	6,13
273,56	25,98
273,77	5,15
273,99	17,16
274,21	24,45
274,42	-2,64
274,64	4,14
274,86	18,84
275,08	15,85
275,29	19,03
275,51	9,60
275,72	9,18
275,94	10,60
276,16	9,77
276,37	11,48
276,59	6,77
276,81	5,72
277,02	-2,37
277,24	4,16
277,46	13,28
277,67	5,53
277,89	18,05
278,11	16,17
278,32	9,31
278,54	14,34
278,76	7,47
278,97	1,01
279,19	23,55
279,41	12,27
279,62	-6,92
279,84	6,94
280,05	8,37
280,27	9,06
280,49	29,13
280,70	4,10
280,92	11,37
281,14	14,54
281,35	14,54
281,57	-0,60
281,79	8,78
282,00	23,37
282,22	8,72
282,43	9,11
282,65	2,53
282,87	5,13
283,08	3,24
283,30	10,90
283,52	11,34
283,73	10,74
283,95	0,47
284,16	14,98
284,38	11,89
284,60	4,31
284,81	14,47
285,03	2,06
285,24	-0,67
285,46	9,19
285,68	30,98
285,89	5,36
286,11	13,52
286,32	-2,18
286,54	1,68
286,76	6,19
286,97	6,08
287,19	29,21
287,40	28,38
287,62	5,73
287,84	12,83
288,05	-9,71
288,27	7,59
288,48	-4,15
288,70	23,47
288,92	8,17
289,13	11,01
289,35	15,36
289,56	-10,17
289,78	4,15
289,99	33,30
290,21	14,37
290,43	4,66
290,64	8,15
290,86	19,40
291,07	8,48
291,29	13,06
291,51	13,82
291,72	3,08
291,94	6,80
292,15	13,81
292,37	-3,06
292,58	16,38
292,80	20,85
293,01	11,61
293,23	17,68
293,45	19,63
293,66	17,54
293,88	15,48
294,09	-2,06
294,31	8,50
294,52	19,57
294,74	-4,58
294,96	2,86
295,17	15,54
295,39	8,82
295,60	9,47
295,82	5,65
296,03	20,24
296,25	7,21
296,46	13,68
296,68	11,62
296,89	11,04
297,11	17,43
297,32	7,73
297,54	15,47
297,76	10,97
297,97	4,78
298,19	12,79
298,40	14,43
298,62	0,20
298,83	24,79
299,05	11,89
299,26	1,69
299,48	15,74
299,69	11,65
299,91	10,09
300,12	16,28
300,34	-12,17
300,55	40,03
300,77	9,61
300,98	14,26
301,20	16,96
301,41	9,93
301,63	8,02
301,84	14,93
302,06	19,95
302,28	3,22
302,49	12,28
302,71	22,96
302,92	6,70
303,14	7,32
303,35	3,38
303,57	-4,08
303,78	16,79
304,00	13,22
304,21	8,61
304,43	15,87
304,64	6,80
304,86	5,90
305,07	11,40
305,29	11,37
305,50	13,41
305,71	13,21
305,93	21,55
306,14	6,37
306,36	23,89
306,57	8,37
306,79	11,09
307,00	0,36
307,22	24,29
307,43	5,35
307,65	14,11
307,86	14,17
308,08	4,77
308,29	7,83
308,51	-2,96
308,72	11,15
308,94	12,30
309,15	12,60
309,37	5,08
309,58	15,13
309,80	16,25
310,01	22,37
310,22	15,96
310,44	15,13
310,65	-5,84
310,87	4,64
311,08	23,24
311,30	15,77
311,51	19,31
311,73	2,11
311,94	31,98
312,16	19,78
312,37	5,62
312,58	3,19
312,80	13,30
313,01	-0,59
313,23	25,16
313,44	18,62
313,66	7,82
313,87	14,72
314,09	-0,86
314,30	6,27
314,51	8,57
314,73	8,78
314,94	7,57
315,16	6,47
315,37	6,07
315,59	11,76
315,80	14,97
316,01	1,99
316,23	27,14
316,44	-0,34
316,66	6,30
316,87	17,09
317,09	26,05
317,30	7,29
317,51	9,62
317,73	26,24
317,94	15,14
318,16	15,71
318,37	20,80
318,58	5,57
318,80	15,56
319,01	13,90
319,23	7,83
319,44	4,47
319,66	-4,35
319,87	15,23
320,08	3,08
320,30	5,40
320,51	23,84
320,73	18,93
320,94	11,73
321,15	16,55
321,37	14,14
321,58	5,63
321,80	38,00
322,01	25,00
322,22	14,31
322,44	25,49
322,65	15,22
322,86	11,02
323,08	17,48
323,29	12,90
323,51	15,52
323,72	10,08
323,93	18,78
324,15	25,82
324,36	19,11
324,58	12,91
324,79	7,10
325,00	18,77
325,22	14,67
325,43	21,01
325,64	8,51
325,86	-1,09
326,07	10,10
326,28	17,12
326,50	8,08
326,71	15,37
326,93	4,46
327,14	10,70
327,35	14,87
327,57	11,50
327,78	9,31
327,99	4,55
328,21	-2,79
328,42	2,99
328,63	11,81
328,85	6,71
329,06	20,62
329,27	19,60
329,49	25,22
329,70	38,66
329,91	64,58
330,13	86,42
330,34	102,93
330,56	89,41
330,77	84,95
330,98	72,17
331,20	43,66
331,41	37,95
331,62	12,62
331,84	17,90
332,05	9,70
332,26	17,17
332,48	15,05
332,69	17,13
332,90	6,23
333,11	20,71
333,33	16,44
333,54	6,35
333,75	11,85
333,97	-5,79
334,18	12,47
334,39	18,29
334,61	14,26
334,82	18,63
335,03	1,88
335,25	18,22
335,46	4,84
335,67	21,69
335,89	9,27
336,10	12,83
336,31	1,54
336,53	-11,78
336,74	8,21
336,95	18,57
337,16	13,66
337,38	14,02
337,59	-0,20
337,80	12,18
338,02	-11,14
338,23	21,59
338,44	9,32
338,65	18,57
338,87	5,86
339,08	18,55
339,29	27,38
339,51	19,84
339,72	12,57
339,93	-8,83
340,14	19,98
340,36	11,70
340,57	15,37
340,78	7,24
341,00	20,92
341,21	17,07
341,42	12,48
341,63	3,54
341,85	4,07
342,06	16,89
342,27	11,86
342,49	-0,48
342,70	8,17
342,91	7,32
343,12	7,33
343,34	19,65
343,55	20,10
343,76	17,23
343,97	10,17
344,19	26,06
344,40	-7,32
344,61	7,95
344,82	4,82
345,04	13,31
345,25	6,91
345,46	20,55
345,67	24,05
345,89	18,66
346,10	3,06
346,31	10,24
346,52	5,14
346,74	0,75
346,95	-2,72
347,16	6,01
347,37	14,62
347,59	8,90
347,80	14,56
348,01	4,52
348,22	24,01
348,43	18,02
348,65	13,21
348,86	4,50
349,07	29,78
349,28	17,18
349,50	7,17
349,71	25,49
349,92	1,65
350,13	17,29
350,34	-7,73
350,56	8,21
350,77	12,42
350,98	-0,08
351,19	24,27
351,41	20,99
351,62	18,26
351,83	16,09
352,04	11,57
352,25	12,42
352,47	16,12
352,68	7,13
352,89	6,84
353,10	-9,03
353,31	5,05
353,53	7,95
353,74	14,68
353,95	4,85
354,16	13,66
354,37	23,04
354,59	22,50
354,80	12,92
355,01	10,53
355,22	8,09
355,43	10,36
355,65	9,15
355,86	20,31
356,07	17,13
356,28	12,86
356,49	24,06
356,70	6,87
356,92	9,90
357,13	7,82
357,34	-0,58
357,55	4,24
357,76	18,26
357,98	16,43
358,19	6,21
358,40	2,54
358,61	6,56
358,82	11,13
359,03	6,34
359,25	19,82
359,46	21,88
359,67	6,70
359,88	29,80
360,09	-0,81
360,30	-1,77
360,51	8,23
360,73	9,56
360,94	18,20
361,15	13,16
361,36	19,00
361,57	7,04
361,78	12,58
362,00	3,26
362,21	8,68
362,42	17,70
362,63	17,65
362,84	16,69
363,05	-2,77
363,26	13,19
363,48	21,39
363,69	0,86
363,90	11,39
364,11	15,76
364,32	12,20
364,53	-7,00
364,74	10,29
364,95	19,52
365,17	19,90
365,38	10,49
365,59	25,24
365,80	19,27
366,01	4,87
366,22	21,57
366,43	1,59
366,64	5,35
366,86	24,94
367,07	11,18
367,28	12,76
367,49	10,79
367,70	17,77
367,91	20,82
368,12	17,43
368,33	29,59
368,54	4,90
368,76	12,90
368,97	25,48
369,18	4,86
369,39	26,78
369,60	21,20
369,81	20,10
370,02	8,46
370,23	4,35
370,44	21,85
370,65	19,33
370,87	-12,41
371,08	11,76
371,29	17,31
371,50	3,44
371,71	17,03
371,92	13,98
372,13	5,04
372,34	19,71
372,55	16,65
372,76	20,19
372,97	10,56
373,18	5,31
373,40	21,73
373,61	2,97
373,82	23,57
374,03	5,42
374,24	11,67
374,45	5,25
374,66	7,71
374,87	2,92
375,08	12,77
375,29	10,66
375,50	-12,81
375,71	16,31
375,92	-5,25
376,13	23,79
376,34	18,03
376,56	2,95
376,77	-1,87
376,98	-5,48
377,19	8,80
377,40	-0,95
377,61	10,87
377,82	4,84
378,03	6,70
378,24	28,75
378,45	11,51
378,66	4,79
378,87	7,48
379,08	9,77
379,29	15,80
379,50	14,71
379,71	18,10
379,92	-9,27
380,13	11,18
380,34	7,93
380,55	15,52
380,76	-1,16
380,97	10,41
381,18	18,15
381,39	18,12
381,60	6,19
381,81	12,76
382,02	11,52
382,24	7,92
382,45	15,53
382,66	9,66
382,87	7,05
383,08	20,07
383,29	-7,97
383,50	15,88
383,71	2,32
383,92	10,79
384,13	33,56
384,34	18,77
384,55	7,31
384,76	4,83
384,97	3,34
385,18	18,61
385,39	5,34
385,60	-0,73
385,81	12,42
386,02	17,30
386,23	-5,90
386,44	23,11
386,65	10,28
386,86	21,36
387,07	9,31
387,28	18,67
387,49	15,28
387,70	-1,51
387,91	10,27
388,12	4,72
388,32	7,27
388,53	-6,84
388,74	20,33
388,95	0,31
389,16	8,36
389,37	16,54
389,58	18,33
389,79	19,67
390,00	18,66
390,21	6,53
390,42	18,89
390,63	23,16
390,84	17,02
391,05	15,59
391,26	18,31
391,47	14,11
391,68	6,20
391,89	1,24
392,10	23,24
392,31	12,65
392,52	2,75
392,73	12,06
392,94	10,59
393,15	15,41
393,36	21,24
393,57	9,40
393,78	6,72
393,98	16,64
394,19	-6,47
394,40	16,12
394,61	19,11
394,82	6,88
395,03	20,59
395,24	5,64
395,45	17,39
395,66	8,64
395,87	-4,03
396,08	17,48
396,29	20,13
396,50	22,00
396,71	-1,00
396,92	-7,11
397,12	15,70
397,33	21,25
397,54	16,72
397,75	13,56
397,96	14,57
398,17	9,10
398,38	2,20
398,59	6,36
398,80	9,16
399,01	-1,74
399,22	17,96
399,43	13,33
399,63	5,58
399,84	18,28
400,05	13,85
400,26	22,21
400,47	21,55
400,68	10,01
400,89	1,23
401,10	16,33
401,31	14,59
401,52	17,97
401,72	4,99
401,93	8,35
402,14	-4,89
402,35	-0,56
402,56	17,74
402,77	5,51
402,98	3,64
403,19	12,16
403,40	17,34
403,60	8,70
403,81	25,09
404,02	10,54
404,23	7,62
404,44	8,29
404,65	22,68
404,86	1,23
405,07	20,43
405,27	19,68
405,48	10,17
405,69	-0,30
405,90	26,93
406,11	15,20
406,32	12,25
406,53	13,96
406,74	4,07
406,94	1,31
407,15	10,58
407,36	1,16
407,57	16,78
407,78	16,29
407,99	23,52
408,20	4,29
408,40	22,20
408,61	11,17
408,82	10,82
409,03	14,14
409,24	-1,88
409,45	11,90
409,65	13,63
409,86	10,81
410,07	17,56
410,28	15,72
410,49	22,40
410,70	11,32
410,90	5,23
411,11	13,24
411,32	10,77
411,53	-14,32
411,74	23,85
411,95	-2,47
412,15	6,67
412,36	20,03
412,57	14,09
412,78	8,84
412,99	17,95
413,20	18,39
413,40	21,63
413,61	8,43
413,82	11,42
414,03	14,41
414,24	24,52
414,44	10,01
414,65	18,50
414,86	12,56
415,07	17,52
415,28	10,35
415,48	3,50
415,69	22,12
415,90	25,47
416,11	-0,54
416,32	9,22
416,53	17,89
416,73	7,15
416,94	17,70
417,15	19,48
417,36	11,15
417,56	12,23
417,77	14,39
417,98	0,87
418,19	5,37
418,40	16,33
418,60	6,57
418,81	11,97
419,02	22,55
419,23	17,68
419,44	9,34
419,64	27,40
419,85	25,44
420,06	19,79
420,27	15,63
420,47	24,52
420,68	23,66
420,89	16,67
421,10	8,03
421,30	11,10
421,51	19,43
421,72	7,79
421,93	13,78
422,14	22,54
422,34	23,75
422,55	-12,66
422,76	12,20
422,97	18,08
423,17	11,70
423,38	6,47
423,59	28,85
423,80	1,56
424,00	13,14
424,21	12,89
424,42	19,70
424,63	21,74
424,83	7,73
425,04	6,22
425,25	17,28
425,46	16,65
425,66	20,23
425,87	12,14
426,08	12,85
426,28	15,69
426,49	22,13
426,70	0,19
426,91	10,85
427,11	11,84
427,32	23,20
427,53	5,38
427,74	7,51
427,94	3,68
428,15	21,76
428,36	12,06
428,56	9,79
428,77	17,17
428,98	3,71
429,19	-6,86
429,39	10,28
429,60	6,90
429,81	7,74
430,01	10,87
430,22	10,26
430,43	7,49
430,64	36,15
430,84	21,81
431,05	18,79
431,26	1,70
431,46	16,59
431,67	10,53
431,88	11,31
432,08	-5,84
432,29	8,92
432,50	11,23
432,70	9,98
432,91	25,05
433,12	13,71
433,33	4,39
433,53	17,77
433,74	20,59
433,95	19,69
434,15	14,48
434,36	17,00
434,57	9,62
434,77	29,20
434,98	7,98
435,19	14,24
435,39	1,05
435,60	15,75
435,81	15,55
436,01	19,21
436,22	14,37
436,43	14,86
436,63	10,40
436,84	1,06
437,05	2,94
437,25	7,68
437,46	17,82
437,67	14,83
437,87	24,14
438,08	10,50
438,29	20,23
438,49	8,52
438,70	7,53
438,91	-1,95
439,11	-3,31
439,32	13,99
439,52	19,54
439,73	9,31
439,94	12,61
440,14	-0,53
440,35	3,07
440,56	-0,64
440,76	28,89
440,97	17,46
441,18	5,43
441,38	-2,37
441,59	13,80
441,79	9,16
442,00	14,67
442,21	24,70
442,41	21,09
442,62	3,40
442,83	15,01
443,03	13,20
443,24	22,01
443,44	16,57
443,65	16,57
443,86	6,33
444,06	-2,55
444,27	6,72
444,48	-2,41
444,68	12,01
444,89	9,51
445,09	14,62
445,30	1,36
445,51	18,66
445,71	18,84
445,92	14,66
446,12	12,65
446,33	0,84
446,54	1,04
446,74	1,71
446,95	12,33
447,15	4,49
447,36	11,62
447,57	5,15
447,77	6,72
447,98	19,98
448,18	1,67
448,39	9,12
448,59	9,24
448,80	20,21
449,01	18,91
449,21	28,69
449,42	21,62
449,62	11,48
449,83	8,36
450,04	6,67
450,24	-0,66
450,45	29,41
450,65	11,81
450,86	9,49
451,06	0,88
451,27	8,15
451,47	9,49
451,68	4,68
451,89	14,92
452,09	19,66
452,30	6,68
452,50	15,75
452,71	10,43
452,91	9,80
453,12	18,22
453,33	-2,09
453,53	25,78
453,74	22,54
453,94	29,10
454,15	14,31
454,35	10,22
454,56	9,67
454,76	2,12
454,97	11,42
455,17	19,65
455,38	17,78
455,58	-1,82
455,79	18,39
456,00	16,79
456,20	-5,25
456,41	15,63
456,61	-3,39
456,82	21,08
457,02	8,72
457,23	10,24
457,43	-5,51
457,64	13,76
457,84	1,56
458,05	2,39
458,25	3,88
458,46	8,61
458,66	7,45
458,87	4,21
459,07	18,09
459,28	20,45
459,48	16,02
459,69	14,60
459,89	18,70
460,10	5,27
460,30	18,58
460,51	10,95
460,71	8,03
460,92	8,62
461,12	12,42
461,33	9,32
461,53	19,39
461,74	1,99
461,94	13,79
462,15	13,30
462,35	22,84
462,56	17,84
462,76	-0,34
462,97	9,76
463,17	18,32
463,38	9,51
463,58	-3,29
463,79	7,99
463,99	16,50
464,20	-3,33
464,40	2,41
464,61	2,32
464,81	24,92
465,02	13,28
465,22	12,99
465,43	-3,58
465,63	12,79
465,83	11,14
466,04	-5,06
466,24	6,99
466,45	15,31
466,65	7,51
466,86	12,35
467,06	12,47
467,27	25,95
467,47	18,90
467,68	15,66
467,88	-1,92
468,08	21,77
468,29	-2,30
468,49	21,86
468,70	21,14
468,90	12,33
469,11	23,31
469,31	18,48
469,52	17,76
469,72	16,76
469,92	17,50
470,13	14,27
470,33	3,19
470,54	11,70
470,74	8,90
470,95	8,75
471,15	14,16
471,35	15,69
471,56	24,90
471,76	12,74
471,97	16,95
472,17	22,32
472,38	8,35
472,58	11,63
472,78	18,79
472,99	3,53
473,19	4,80
473,40	1,73
473,60	10,10
473,80	20,70
474,01	18,74
474,21	10,36
474,42	-1,96
474,62	13,53
474,83	23,65
475,03	8,09
475,23	29,77
475,44	14,37
475,64	15,76
475,85	29,85
476,05	3,90
476,25	14,89
476,46	31,65
476,66	7,52
476,86	1,55
477,07	9,97
477,27	3,36
477,48	18,35
477,68	6,53
477,88	32,48
478,09	12,32
478,29	19,02
478,50	18,25
478,70	2,01
478,90	16,04
479,11	7,92
479,31	15,81
479,51	18,80
479,72	-4,58
479,92	6,72
480,12	7,17
480,33	13,07
480,53	1,97
480,74	13,83
480,94	-5,19
481,14	14,43
481,35	20,37
481,55	16,52
481,75	6,30
481,96	15,92
482,16	18,74
482,36	23,00
482,57	23,87
482,77	13,49
482,97	22,17
483,18	10,15
483,38	28,30
483,58	8,51
483,79	10,60
483,99	25,45
484,19	-5,84
484,40	17,69
484,60	15,63
484,80	6,33
485,01	12,34
485,21	25,44
485,41	11,12
485,62	15,61
485,82	-12,01
486,02	13,03
486,23	2,40
486,43	13,55
486,63	2,10
486,84	19,59
487,04	8,42
487,24	11,22
487,45	21,52
487,65	17,36
487,85	13,24
488,06	12,86
488,26	9,03
488,46	8,57
488,67	12,48
488,87	13,15
489,07	19,44
489,27	12,59
489,48	20,36
489,68	6,27
489,88	16,89
490,09	9,07
490,29	7,22
490,49	19,94
490,70	20,15
490,90	7,50
491,10	16,84
491,30	8,30
491,51	24,74
491,71	14,28
491,91	9,55
492,12	9,56
492,32	14,74
492,52	16,16
492,72	5,58
492,93	21,43
493,13	6,08
493,33	6,80
493,53	26,25
493,74	27,23
493,94	15,50
494,14	6,93
494,34	11,04
494,55	13,57
494,75	29,12
494,95	18,35
495,16	16,42
495,36	4,90
495,56	19,95
495,76	5,69
495,97	7,12
496,17	22,03
496,37	13,77
496,57	8,13
496,78	-0,09
496,98	-1,15
497,18	18,27
497,38	14,03
497,59	27,91
497,79	19,46
497,99	58,39
498,19	40,51
498,39	39,40
498,60	31,38
498,80	18,42
499,00	33,11
499,20	23,73
499,41	28,73
499,61	15,66
499,81	19,03
500,01	25,28
500,22	24,77
500,42	-5,38
500,62	23,42
500,82	14,40
501,02	8,63
501,23	16,58
501,43	10,61
501,63	-7,30
501,83	26,01
502,03	3,48
502,24	9,74
502,44	8,97
502,64	25,03
502,84	3,92
503,05	17,69
503,25	10,98
503,45	16,77
503,65	1,50
503,85	13,63
504,06	6,00
504,26	3,58
504,46	14,10
504,66	8,32
504,86	19,00
505,06	20,81
505,27	24,34
505,47	21,22
505,67	15,71
505,87	18,93
506,07	8,76
506,28	9,89
506,48	8,07
506,68	24,69
506,88	6,38
507,08	7,06
507,28	22,79
507,49	12,52
507,69	16,56
507,89	6,26
508,09	17,09
508,29	1,16
508,49	-1,11
508,70	24,70
508,90	-0,35
509,10	19,00
509,30	10,78
509,50	27,14
509,70	20,71
509,91	5,69
510,11	-3,16
510,31	8,64
510,51	7,95
510,71	12,15
510,91	17,30
511,11	22,59
511,32	13,07
511,52	26,27
511,72	15,77
511,92	8,82
512,12	23,34
512,32	20,40
512,52	24,33
512,73	1,30
512,93	30,89
513,13	8,39
513,33	23,12
513,53	17,83
513,73	25,82
513,93	7,38
514,13	2,97
514,34	16,13
514,54	10,66
514,74	29,18
514,94	22,50
515,14	17,67
515,34	35,39
515,54	35,91
515,74	20,96
515,94	26,35
516,15	23,75
516,35	11,31
516,55	22,08
516,75	3,99
516,95	6,41
517,15	13,59
517,35	14,27
517,55	18,01
517,75	28,70
517,95	26,92
518,16	4,20
518,36	18,34
518,56	11,51
518,76	20,84
518,96	8,09
519,16	32,30
519,36	11,10
519,56	13,45
519,76	28,29
519,96	5,51
520,16	22,33
520,37	13,85
520,57	-11,91
520,77	14,92
520,97	13,00
521,17	4,04
521,37	-4,91
521,57	32,10
521,77	7,64
521,97	17,34
522,17	3,88
522,37	17,45
522,57	14,79
522,77	23,04
522,97	18,92
523,17	12,24
523,37	7,90
523,58	9,69
523,78	16,23
523,98	21,61
524,18	-3,62
524,38	25,47
524,58	3,23
524,78	17,29
524,98	13,52
525,18	24,03
525,38	27,53
525,58	7,76
525,78	5,79
525,98	9,54
526,18	11,18
526,38	17,27
526,58	3,18
526,78	22,67
526,98	20,28
527,18	25,55
527,38	6,09
527,58	30,19
527,78	14,29
527,98	16,20
528,18	16,27
528,38	18,93
528,58	20,77
528,78	14,45
528,98	10,55
529,18	-0,09
529,38	28,75
529,58	18,62
529,78	6,39
529,98	2,92
530,18	18,82
530,38	18,41
530,58	26,43
530,78	16,53
530,98	12,69
531,18	30,04
531,38	24,30
531,58	17,26
531,78	25,86
531,98	15,03
532,18	18,55
532,38	22,18
532,58	23,92
532,78	17,74
532,98	7,84
533,18	12,69
533,38	15,00
533,58	8,72
533,78	13,54
533,98	21,64
534,18	14,63
534,38	17,20
534,58	4,33
534,78	12,87
534,98	20,49
535,18	3,30
535,38	17,14
535,58	10,30
535,78	12,79
535,98	7,61
536,18	4,53
536,38	16,20
536,58	11,53
536,78	7,55
536,98	16,27
537,18	19,47
537,38	23,38
537,58	23,98
537,78	19,70
537,98	10,12
538,17	9,80
538,37	12,27
538,57	-6,25
538,77	21,25
538,97	26,53
539,17	28,11
539,37	1,83
539,57	21,09
539,77	24,57
539,97	13,85
540,17	12,94
540,37	4,54
540,57	13,27
540,77	15,24
540,97	4,63
541,16	12,80
541,36	13,85
541,56	16,27
541,76	12,42
541,96	6,01
542,16	31,36
542,36	15,59
542,56	18,28
542,76	6,18
542,96	27,14
543,16	10,95
543,36	21,22
543,55	3,06
543,75	5,79
543,95	3,49
544,15	26,71
544,35	9,52
544,55	19,63
544,75	15,05
544,95	26,32
545,15	17,18
545,35	14,55
545,54	18,09
545,74	18,04
545,94	11,06
546,14	23,16
546,34	20,67
546,54	21,53
546,74	1,71
546,94	19,23
547,14	14,37
547,33	33,11
547,53	28,38
547,73	11,74
547,93	4,84
548,13	26,45
548,33	25,96
548,53	28,46
548,72	4,22
548,92	21,64
549,12	21,88
549,32	21,80
549,52	23,53
549,72	16,55
549,92	10,83
550,12	34,46
550,31	16,45
550,51	20,25
550,71	6,53
550,91	23,78
551,11	4,18
551,31	23,98
551,50	15,46
551,70	16,05
551,90	11,34
552,10	15,78
552,30	21,77
552,50	16,21
552,70	22,00
552,89	21,40
553,09	2,52
553,29	16,21
553,49	23,32
553,69	5,54
553,88	3,64
554,08	21,10
554,28	26,11
554,48	26,10
554,68	20,73
554,88	12,68
555,07	19,12
555,27	11,97
555,47	20,12
555,67	1,74
555,87	13,70
556,06	13,59
556,26	13,49
556,46	17,89
556,66	1,29
556,86	26,26
557,06	14,90
557,25	8,01
557,45	33,80
557,65	13,10
557,85	31,70
558,05	11,07
558,24	3,61
558,44	19,82
558,64	27,40
558,84	32,72
559,03	11,60
559,23	9,76
559,43	23,09
559,63	29,16
559,83	8,09
560,02	13,66
560,22	28,50
560,42	29,70
560,62	11,39
560,82	21,91
561,01	34,76
561,21	-0,18
561,41	16,39
561,61	21,36
561,80	19,42
562,00	20,53
562,20	24,67
562,40	39,51
562,59	3,06
562,79	34,48
562,99	29,86
563,19	27,29
563,38	14,09
563,58	25,41
563,78	20,47
563,98	24,32
564,17	21,24
564,37	12,65
564,57	15,10
564,77	19,74
564,96	29,94
565,16	5,25
565,36	16,66
565,56	14,57
565,75	42,44
565,95	15,01
566,15	20,15
566,35	32,64
566,54	31,19
566,74	21,68
566,94	29,43
567,14	19,00
567,33	34,24
567,53	64,37
567,73	98,66
567,92	128,36
568,12	178,23
568,32	247,18
568,52	292,69
568,71	329,63
568,91	335,31
569,11	322,26
569,30	262,11
569,50	226,98
569,70	184,89
569,90	124,58
570,09	93,06
570,29	84,79
570,49	72,20
570,68	52,76
570,88	53,41
571,08	40,32
571,27	25,69
571,47	37,74
571,67	41,59
571,87	42,08
572,06	14,39
572,26	33,44
572,46	18,41
572,65	19,87
572,85	31,56
573,05	36,94
573,24	44,87
573,44	38,14
573,64	23,65
573,83	31,50
574,03	33,51
574,23	43,44
574,42	34,37
574,62	54,10
574,82	27,71
575,01	47,68
575,21	37,72
575,41	48,03
575,60	32,64
575,80	35,38
576,00	20,47
576,19	50,84
576,39	53,18
576,59	64,11
576,78	34,86
576,98	33,53
577,18	59,78
577,37	43,96
577,57	39,90
577,77	40,48
577,96	70,63
578,16	40,79
578,35	59,75
578,55	39,51
578,75	36,42
578,94	41,37
579,14	47,67
579,34	50,38
579,53	52,36
579,73	47,72
579,93	58,88
580,12	58,97
580,32	59,67
580,51	61,97
580,71	66,12
580,91	67,02
581,10	61,71
581,30	74,89
581,50	71,89
581,69	63,62
581,89	68,11
582,08	65,53
582,28	70,80
582,48	67,98
582,67	62,95
582,87	83,64
583,06	85,51
583,26	77,39
583,46	85,47
583,65	101,07
583,85	95,30
584,04	103,53
584,24	113,28
584,44	109,86
584,63	135,95
584,83	131,12
585,02	157,47
585,22	148,07
585,42	164,58
585,61	183,52
585,81	204,66
586,00	195,74
586,20	223,41
586,39	235,59
586,59	232,11
586,79	240,94
586,98	268,72
587,18	291,81
587,37	344,74
587,57	447,89
587,76	950,79
587,96	3202,89
588,16	8525,39
588,35	16256,72
588,55	27764,72
588,74	43232,61
588,94	59533,28
589,13	64261,98
589,33	64254,92
589,52	64263,11
589,72	64259,32
589,92	64257,27
590,11	61704,47
590,31	45297,22
590,50	30479,12
590,70	21757,08
590,89	16115,93
591,09	11746,87
591,28	8518,01
591,48	6072,49
591,67	4154,57
591,87	2780,94
592,06	1838,11
592,26	1232,62
592,46	853,75
592,65	614,85
592,85	497,00
593,04	385,91
593,24	347,88
593,43	302,34
593,63	274,58
593,82	223,73
594,02	231,88
594,21	206,66
594,41	193,33
594,60	175,85
594,80	184,00
594,99	173,07
595,19	166,04
595,38	157,26
595,58	140,43
595,77	143,85
595,97	150,54
596,16	140,83
596,36	129,12
596,55	111,69
596,75	113,53
596,94	107,04
597,14	97,89
597,33	105,53
597,53	103,10
597,72	107,97
597,92	97,78
598,11	88,51
598,31	111,36
598,50	97,13
598,70	93,67
598,89	91,79
599,09	95,57
599,28	75,43
599,48	100,78
599,67	80,61
599,87	65,37
600,06	66,21
600,26	77,29
600,45	81,84
600,64	69,52
600,84	72,80
601,03	81,43
601,23	62,81
601,42	68,25
601,62	63,78
601,81	63,92
602,01	70,14
602,20	88,38
602,40	44,87
602,59	60,67
602,78	60,37
602,98	58,15
603,17	61,17
603,37	80,67
603,56	48,53
603,76	59,71
603,95	42,97
604,15	67,87
604,34	55,70
604,53	64,56
604,73	61,70
604,92	52,43
605,12	55,89
605,31	30,08
605,51	47,58
605,70	39,60
605,89	36,83
606,09	48,75
606,28	56,84
606,48	40,86
606,67	32,36
606,87	46,46
607,06	50,10
607,25	44,46
607,45	28,94
607,64	38,58
607,84	36,53
608,03	60,93
608,22	28,34
608,42	37,25
608,61	50,66
608,81	54,03
609,00	46,05
609,19	44,04
609,39	37,00
609,58	48,03
609,78	54,27
609,97	23,56
610,16	39,76
610,36	18,18
610,55	31,12
610,75	41,06
610,94	23,63
611,13	46,05
611,33	34,55
611,52	40,56
611,71	51,74
611,91	25,12
612,10	27,79
612,30	46,84
612,49	23,64
612,68	43,39
612,88	25,91
613,07	32,69
613,26	22,66
613,46	30,80
613,65	43,21
613,84	38,57
614,04	28,96
614,23	58,42
614,43	33,51
614,62	46,38
614,81	28,04
615,01	60,81
615,20	61,69
615,39	70,39
615,59	101,40
615,78	89,23
615,97	116,86
616,17	98,06
616,36	94,70
616,55	78,48
616,75	77,32
616,94	54,90
617,13	68,03
617,33	49,54
617,52	47,92
617,71	24,51
617,91	41,37
618,10	31,75
618,29	38,06
618,49	34,53
618,68	40,54
618,87	45,31
619,07	28,68
619,26	20,60
619,45	18,31
619,65	49,63
619,84	35,91
620,03	24,13
620,22	33,12
620,42	20,70
620,61	40,48
620,80	29,00
621,00	33,69
621,19	27,29
621,38	17,40
621,58	40,49
621,77	34,87
621,96	8,92
622,15	14,72
622,35	25,84
622,54	30,11
622,73	28,04
622,93	28,33
623,12	34,49
623,31	21,82
623,50	44,82
623,70	38,08
623,89	31,49
624,08	39,28
624,28	19,92
624,47	27,59
624,66	28,18
624,85	25,46
625,05	22,94
625,24	33,70
625,43	22,47
625,62	27,35
625,82	31,94
626,01	14,97
626,20	34,81
626,39	28,00
626,59	20,48
626,78	38,60
626,97	44,91
627,17	15,53
627,36	27,78
627,55	22,32
627,74	24,96
627,93	22,19
628,13	24,41
628,32	26,05
628,51	28,40
628,70	16,69
628,90	26,90
629,09	19,24
629,28	21,82
629,47	16,83
629,67	20,41
629,86	22,04
630,05	15,56
630,24	25,52
630,44	23,74
630,63	21,94
630,82	20,18
631,01	21,20
631,20	20,60
631,40	15,20
631,59	9,62
631,78	21,67
631,97	11,50
632,16	26,05
632,36	12,04
632,55	19,83
632,74	25,49
632,93	16,25
633,13	24,20
633,32	32,77
633,51	4,88
633,70	0,16
633,89	4,06
634,09	34,30
634,28	34,68
634,47	19,37
634,66	18,13
634,85	23,02
635,04	43,22
635,24	26,82
635,43	13,29
635,62	23,78
635,81	10,16
636,00	5,16
636,20	11,48
636,39	44,91
636,58	29,58
636,77	20,48
636,96	2,19
637,15	32,22
637,35	17,78
637,54	9,44
637,73	9,72
637,92	37,46
638,11	40,30
638,30	25,23
638,50	18,37
638,69	26,67
638,88	12,55
639,07	12,91
639,26	24,97
639,45	14,80
639,64	16,27
639,84	22,44
640,03	27,35
640,22	38,02
640,41	20,85
640,60	13,68
640,79	15,33
640,98	22,28
641,18	35,19
641,37	38,51
641,56	16,10
641,75	22,00
641,94	24,98
642,13	16,15
642,32	25,66
642,52	17,35
642,71	29,51
642,90	22,75
643,09	16,13
643,28	22,18
643,47	29,08
643,66	27,93
643,85	7,99
644,04	20,92
644,24	23,71
644,43	15,81
644,62	21,98
644,81	20,42
645,00	35,17
645,19	26,23
645,38	13,53
645,57	17,49
645,76	19,28
645,96	23,05
646,15	19,76
646,34	25,03
646,53	33,98
646,72	22,17
646,91	13,30
647,10	29,43
647,29	26,98
647,48	14,83
647,67	28,18
647,86	12,20
648,05	5,79
648,25	2,58
648,44	20,64
648,63	19,07
648,82	21,88
649,01	10,53
649,20	16,17
649,39	10,45
649,58	16,83
649,77	22,00
649,96	20,05
650,15	18,34
650,34	31,67
650,53	23,18
650,72	16,37
650,91	29,97
651,11	18,20
651,30	5,14
651,49	12,42
651,68	12,98
651,87	17,15
652,06	21,60
652,25	21,76
652,44	28,85
652,63	15,58
652,82	16,80
653,01	9,64
653,20	9,91
653,39	24,69
653,58	14,18
653,77	24,64
653,96	12,31
654,15	15,91
654,34	13,69
654,53	4,54
654,72	3,51
654,91	19,34
655,10	17,86
655,29	32,07
655,48	15,11
655,67	12,61
655,86	9,89
656,05	10,00
656,24	36,87
656,43	23,49
656,62	-7,93
656,81	22,21
657,00	7,99
657,19	18,30
657,38	11,19
657,57	5,32
657,76	12,95
657,95	17,49
658,14	20,64
658,33	10,77
658,52	21,37
658,71	19,23
658,90	27,68
659,09	13,00
659,28	4,10
659,47	20,55
659,66	25,52
659,85	5,89
660,04	9,15
660,23	22,31
660,42	2,35
660,61	35,73
660,80	25,63
660,99	30,28
661,18	2,05
661,37	17,69
661,56	3,44
661,75	27,13
661,94	22,74
662,13	17,45
662,32	9,30
662,51	14,71
662,70	29,02
662,89	24,95
663,08	27,07
663,27	31,71
663,46	3,41
663,65	6,54
663,83	10,99
664,02	9,51
664,21	11,78
664,40	16,98
664,59	8,31
664,78	2,43
664,97	17,89
665,16	15,39
665,35	4,29
665,54	13,96
665,73	25,52
665,92	11,15
666,11	20,09
666,30	18,28
666,49	5,74
666,67	16,90
666,86	10,52
667,05	-1,81
667,24	12,30
667,43	26,52
667,62	8,83
667,81	36,53
668,00	19,49
668,19	14,68
668,38	25,99
668,57	19,85
668,76	5,69
668,94	28,69
669,13	12,53
669,32	39,24
669,51	31,85
669,70	22,57
669,89	20,01
670,08	-12,28
670,27	6,36
670,46	12,08
670,64	11,79
670,83	23,78
671,02	-4,07
671,21	25,47
671,40	15,12
671,59	18,82
671,78	15,40
671,97	9,39
672,16	16,12
672,34	10,70
672,53	10,67
672,72	22,96
672,91	18,70
673,10	15,31
673,29	3,17
673,48	4,66
673,66	3,91
673,85	2,29
674,04	13,39
674,23	22,10
674,42	15,70
674,61	4,22
674,80	26,11
674,98	24,78
675,17	0,44
675,36	27,78
675,55	15,23
675,74	21,13
675,93	26,97
676,12	5,63
676,30	10,74
676,49	21,24
676,68	4,98
676,87	19,33
677,06	23,89
677,25	14,83
677,43	1,63
677,62	19,02
677,81	10,22
678,00	30,26
678,19	17,47
678,37	14,67
678,56	5,84
678,75	14,10
678,94	19,79
679,13	18,59
679,32	4,50
679,50	13,36
679,69	11,02
679,88	23,18
680,07	22,26
680,26	0,72
680,44	12,30
680,63	15,29
680,82	7,16
681,01	22,61
681,20	7,09
681,38	-5,63
681,57	18,22
681,76	21,22
681,95	-4,99
682,14	3,87
682,32	13,99
682,51	16,05
682,70	3,45
682,89	-3,77
683,07	15,29
683,26	0,01
683,45	-1,22
683,64	7,66
683,83	4,95
684,01	8,97
684,20	20,76
684,39	21,29
684,58	5,18
684,76	5,76
684,95	6,15
685,14	7,32
685,33	18,55
685,52	7,38
685,70	13,79
685,89	16,31
686,08	14,63
686,27	12,42
686,45	14,29
686,64	19,51
686,83	14,95
687,02	16,55
687,20	4,87
687,39	29,59
687,58	22,74
687,76	11,87
687,95	17,68
688,14	17,64
688,33	16,90
688,51	13,65
688,70	5,84
688,89	6,81
689,08	13,55
689,26	18,99
689,45	19,69
689,64	7,43
689,83	12,02
690,01	17,09
690,20	18,41
690,39	0,79
690,57	11,42
690,76	21,25
690,95	-1,63
691,14	-5,15
691,32	12,92
691,51	14,93
691,70	15,39
691,88	11,15
692,07	14,19
692,26	-4,26
692,44	9,47
692,63	31,50
692,82	14,52
693,01	18,70
693,19	7,75
693,38	15,63
693,57	5,36
693,75	1,51
693,94	4,92
694,13	12,70
694,31	13,45
694,50	-2,54
694,69	8,09
694,87	0,11
695,06	9,34
695,25	13,64
695,43	30,02
695,62	6,69
695,81	18,27
695,99	49,29
696,18	64,71
696,37	85,87
696,55	84,23
696,74	66,73
696,93	83,89
697,11	79,07
697,30	47,35
697,49	36,13
697,67	29,71
697,86	29,51
698,05	32,03
698,23	28,03
698,42	3,83
698,61	9,66
698,79	3,50
698,98	12,99
699,17	-5,05
699,35	10,91
699,54	4,85
699,72	26,37
699,91	-7,76
700,10	26,38
700,28	14,54
700,47	-6,56
700,66	7,18
700,84	0,37
701,03	2,69
701,21	17,87
701,40	-5,45
701,59	16,05
701,77	18,97
701,96	14,04
702,15	14,57
702,33	18,42
702,52	7,71
702,70	10,82
702,89	9,65
703,08	17,56
703,26	12,96
703,45	13,23
703,63	18,84
703,82	4,30
704,01	6,78
704,19	24,82
704,38	0,93
704,56	11,22
704,75	10,82
704,94	16,59
705,12	21,08
705,31	15,20
705,49	16,82
705,68	16,21
705,86	13,83
706,05	34,44
706,24	18,42
706,42	39,81
706,61	44,05
706,79	48,48
706,98	47,93
707,17	47,88
707,35	51,07
707,54	29,98
707,72	38,73
707,91	32,91
708,09	36,40
708,28	7,17
708,46	36,72
708,65	5,14
708,84	3,70
709,02	6,20
709,21	18,24
709,39	31,45
709,58	10,50
709,76	0,66
709,95	2,05
710,13	16,64
710,32	17,07
710,50	28,22
710,69	4,84
710,88	-1,35
711,06	-16,26
711,25	-4,99
711,43	20,52
711,62	17,18
711,80	22,62
711,99	22,65
712,17	8,18
712,36	17,93
712,54	16,87
712,73	-2,71
712,91	16,39
713,10	9,28
713,28	4,48
713,47	7,35
713,65	-0,69
713,84	2,44
714,02	-2,98
714,21	12,53
714,39	22,22
714,58	26,40
714,76	28,97
714,95	6,28
715,13	17,56
715,32	-2,98
715,50	24,79
715,69	19,63
715,87	4,25
716,06	24,08
716,24	8,91
716,43	2,67
716,61	10,88
716,80	-1,12
716,98	7,36
717,17	10,74
717,35	24,78
717,54	7,18
717,72	12,93
717,91	12,21
718,09	20,36
718,28	2,07
718,46	4,83
718,65	15,39
718,83	7,00
719,01	19,08
719,20	13,69
719,38	21,74
719,57	5,36
719,75	22,94
719,94	21,19
720,12	6,28
720,31	12,97
720,49	11,75
720,68	4,11
720,86	11,54
721,04	7,07
721,23	9,00
721,41	11,27
721,60	6,36
721,78	7,22
721,97	18,51
722,15	7,46
722,34	13,76
722,52	10,70
722,70	-3,18
722,89	11,80
723,07	13,87
723,26	14,37
723,44	2,48
723,63	15,28
723,81	19,54
723,99	13,05
724,18	11,89
724,36	20,45
724,55	26,55
724,73	9,94
724,91	16,10
725,10	8,89
725,28	4,22
725,47	10,21
725,65	9,85
725,83	-3,46
726,02	12,83
726,20	13,68
726,39	15,10
726,57	6,88
726,75	29,48
726,94	17,56
727,12	18,09
727,31	23,12
727,49	33,00
727,67	17,42
727,86	29,01
728,04	21,72
728,23	21,84
728,41	0,04
728,59	5,56
728,78	19,01
728,96	29,86
729,14	8,75
729,33	11,00
729,51	-5,53
729,69	16,03
729,88	28,72
730,06	3,20
730,25	10,57
730,43	16,75
730,61	12,63
730,80	13,13
730,98	26,45
731,16	18,80
731,35	16,08
731,53	4,96
731,71	9,19
731,90	4,63
732,08	-12,79
732,26	15,11
732,45	21,56
732,63	-5,08
732,81	10,41
733,00	2,30
733,18	16,39
733,36	11,34
733,55	12,76
733,73	-2,48
733,91	14,89
734,10	9,56
734,28	27,89
734,46	9,78
734,65	22,99
734,83	-1,82
735,01	9,13
735,20	20,16
735,38	17,48
735,56	17,01
735,75	18,96
735,93	9,55
736,11	15,08
736,30	-2,71
736,48	12,64
736,66	16,66
736,84	7,38
737,03	14,35
737,21	6,49
737,39	25,46
737,58	18,20
737,76	42,20
737,94	55,66
738,12	38,46
738,31	60,92
738,49	63,68
738,67	57,45
738,86	58,27
739,04	57,61
739,22	52,67
739,40	46,85
739,59	24,33
739,77	28,37
739,95	26,18
740,14	36,62
740,32	9,67
740,50	20,31
740,68	17,71
740,87	7,15
741,05	14,89
741,23	20,65
741,41	5,81
741,60	15,41
741,78	4,25
741,96	17,92
742,14	2,64
742,33	10,41
742,51	19,14
742,69	24,06
742,87	13,94
743,06	6,47
743,24	11,66
743,42	-2,59
743,60	10,63
743,79	10,73
743,97	4,88
744,15	4,08
744,33	12,47
744,52	13,62
744,70	-4,67
744,88	8,54
745,06	10,23
745,24	9,23
745,43	1,28
745,61	10,33
745,79	17,01
745,97	13,28
746,16	8,49
746,34	3,45
746,52	2,54
746,70	6,15
746,88	16,52
747,07	11,10
747,25	7,10
747,43	15,66
747,61	10,15
747,79	2,32
747,98	2,73
748,16	19,71
748,34	29,72
748,52	25,70
748,70	2,89
748,89	3,19
749,07	-0,44
749,25	18,55
749,43	28,71
749,61	21,63
749,79	26,90
749,98	26,29
750,16	45,51
750,34	45,83
750,52	48,16
750,70	66,65
750,88	80,04
751,07	67,92
751,25	73,48
751,43	78,22
751,61	87,03
751,79	72,98
751,97	42,25
752,16	61,46
752,34	59,98
752,52	18,79
752,70	19,61
752,88	24,83
753,06	27,89
753,25	16,29
753,43	27,06
753,61	13,28
753,79	11,57
753,97	9,48
754,15	22,16
754,33	14,42
754,52	11,72
754,70	23,21
754,88	7,86
755,06	20,78
755,24	18,93
755,42	12,82
755,60	5,76
755,78	13,84
755,97	16,82
756,15	4,21
756,33	20,81
756,51	17,21
756,69	25,66
756,87	3,77
757,05	14,58
757,23	5,16
757,41	1,81
757,60	10,09
757,78	19,53
757,96	19,45
758,14	10,72
758,32	10,99
758,50	18,63
758,68	12,14
758,86	18,08
759,04	24,50
759,22	8,99
759,41	0,69
759,59	19,19
759,77	12,60
759,95	1,92
760,13	12,39
760,31	8,56
760,49	4,20
760,67	33,62
760,85	10,75
761,03	14,42
761,21	17,81
761,39	13,62
761,57	9,32
761,76	-5,45
761,94	11,77
762,12	23,78
762,30	19,05
762,48	38,02
762,66	58,41
762,84	98,15
763,02	148,68
763,20	185,22
763,38	203,72
763,56	253,35
763,74	232,54
763,92	232,00
764,10	194,97
764,28	174,83
764,46	135,42
764,64	126,87
764,82	112,26
765,00	96,05
765,19	87,60
765,37	87,23
765,55	92,06
765,73	83,87
765,91	92,60
766,09	125,64
766,27	134,61
766,45	148,09
766,63	154,45
766,81	143,58
766,99	121,79
767,17	112,24
767,35	87,60
767,53	71,69
767,71	85,76
767,89	48,06
768,07	39,95
768,25	51,93
768,43	43,51
768,61	25,43
768,79	37,10
768,97	40,61
769,15	46,99
769,33	39,68
769,51	69,09
769,69	61,78
769,87	80,88
770,05	74,79
770,23	74,83
770,41	70,64
770,59	72,43
770,77	57,52
770,95	48,69
771,13	34,61
771,31	47,69
771,49	52,08
771,67	47,12
771,85	75,46
772,03	85,44
772,21	79,50
772,38	116,17
772,56	81,20
772,74	89,47
772,92	80,45
773,10	77,71
773,28	61,99
773,46	55,92
773,64	28,31
773,82	33,10
774,00	31,31
774,18	37,99
774,36	27,08
774,54	28,12
774,72	25,47
774,90	21,46
775,08	23,54
775,26	38,09
775,44	32,62
775,62	30,29
775,80	-1,35
775,97	20,87
776,15	6,27
776,33	6,68
776,51	3,31
776,69	10,52
776,87	-5,92
777,05	15,67
777,23	6,47
777,41	15,19
777,59	8,31
777,77	7,88
777,95	-0,08
778,13	5,67
778,30	5,30
778,48	-12,00
778,66	28,82
778,84	1,77
779,02	17,32
779,20	17,88
779,38	9,86
779,56	2,47
779,74	11,29
779,92	21,13
780,09	7,85
780,27	-12,97
780,45	17,60
780,63	19,83
780,81	2,13
780,99	1,07
781,17	11,61
781,35	6,41
781,52	17,94
781,70	6,64
781,88	11,31
782,06	2,00
782,24	15,64
782,42	15,61
782,60	5,61
782,78	18,40
782,95	6,86
783,13	24,57
783,31	13,49
783,49	-6,58
783,67	9,19
783,85	5,49
784,03	5,68
784,20	5,47
784,38	6,14
784,56	2,78
784,74	9,55
784,92	7,10
785,10	10,08
785,28	0,77
785,45	-2,52
785,63	20,61
785,81	19,11
785,99	24,32
786,17	-0,03
786,35	8,52
786,52	-4,53
786,70	11,56
786,88	15,40
787,06	17,09
787,24	1,09
787,41	11,05
787,59	15,48
787,77	3,67
787,95	15,14
788,13	8,06
788,31	5,18
788,48	10,12
788,66	-2,67
788,84	14,96
789,02	-0,39
789,20	2,86
789,37	6,57
789,55	-9,53
789,73	15,64
789,91	3,47
790,09	18,98
790,26	18,79
790,44	15,08
790,62	-10,88
790,80	11,45
790,98	3,73
791,15	11,00
791,33	23,88
791,51	4,18
791,69	3,99
791,86	17,47
792,04	22,46
792,22	-0,66
792,40	12,14
792,58	8,70
792,75	14,75
792,93	12,10
793,11	9,22
793,29	9,82
793,46	8,00
793,64	4,32
793,82	19,77
794,00	26,38
794,17	30,96
794,35	47,29
794,53	57,30
794,71	56,31
794,88	38,78
795,06	62,08
795,24	52,04
795,42	44,97
795,59	61,47
795,77	39,75
795,95	34,61
796,13	36,23
796,30	39,07
796,48	19,90
796,66	26,21
796,83	10,12
797,01	23,21
797,19	11,85
797,37	33,74
797,54	14,68
797,72	22,52
797,90	13,66
798,08	14,08
798,25	8,56
798,43	11,65
798,61	5,54
798,78	20,12
798,96	5,07
799,14	21,80
799,31	11,55
799,49	26,60
799,67	11,89
799,85	33,41
800,02	29,40
800,20	32,90
800,38	32,30
800,55	40,47
800,73	48,70
800,91	63,99
801,08	75,72
801,26	80,43
801,44	87,02
801,61	101,70
801,79	69,75
801,97	59,44
802,15	49,56
802,32	56,13
802,50	43,87
802,68	54,71
802,85	22,99
803,03	42,82
803,21	34,00
803,38	45,24
803,56	33,60
803,74	31,74
803,91	19,95
804,09	25,75
804,26	36,97
804,44	29,92
804,62	24,06
804,79	15,07
804,97	4,13
805,15	-0,56
805,32	24,08
805,50	16,54
805,68	18,54
805,85	5,61
806,03	20,17
806,21	8,09
806,38	19,68
806,56	-6,53
806,73	3,39
806,91	8,20
807,09	7,10
807,26	20,53
807,44	18,22
807,62	27,61
807,79	9,28
807,97	8,21
808,14	13,68
808,32	6,47
808,50	23,28
808,67	12,50
808,85	8,67
809,02	14,30
809,20	18,51
809,38	32,34
809,55	11,33
809,73	35,13
809,90	46,14
810,08	58,42
810,26	61,09
810,43	78,19
810,61	107,91
810,78	122,99
810,96	157,90
811,14	167,06
811,31	192,44
811,49	203,72
811,66	220,81
811,84	197,92
812,02	187,81
812,19	174,70
812,37	138,73
812,54	126,45
812,72	106,88
812,89	99,36
813,07	98,05
813,25	95,13
813,42	85,57
813,60	68,63
813,77	61,03
813,95	49,90
814,12	60,93
814,30	30,61
814,47	48,80
814,65	40,16
814,83	47,60
815,00	37,53
815,18	31,30
815,35	28,98
815,53	20,02
815,70	25,87
815,88	22,88
816,05	3,67
816,23	14,38
816,40	-5,66
816,58	11,23
816,75	27,97
816,93	18,26
817,10	25,53
817,28	73,09
817,46	97,85
817,63	140,88
817,81	209,65
817,98	269,58
818,16	304,58
818,33	363,95
818,51	412,65
818,68	466,65
818,86	517,52
819,03	590,77
819,21	619,51
819,38	668,35
819,56	680,13
819,73	675,56
819,91	640,55
820,08	605,87
820,26	543,36
820,43	474,15
820,61	435,25
820,78	409,26
820,96	350,78
821,13	330,06
821,31	286,24
821,48	264,25
821,66	239,01
821,83	196,95
822,00	175,33
822,18	144,59
822,35	126,02
822,53	119,47
822,70	92,19
822,88	88,29
823,05	89,63
823,23	59,68
823,40	66,41
823,58	54,85
823,75	37,38
823,93	38,59
824,10	11,02
824,28	11,69
824,45	19,28
824,62	3,05
824,80	7,95
824,97	30,23
825,15	23,31
825,32	6,71
825,50	15,13
825,67	20,12
825,85	12,17
826,02	28,49
826,19	34,69
826,37	25,20
826,54	43,64
826,72	47,96
826,89	23,09
827,07	48,10
827,24	38,30
827,41	39,04
827,59	27,67
827,76	25,06
827,94	5,37
828,11	27,83
828,28	37,05
828,46	18,45
828,63	37,58
828,81	17,60
828,98	16,68
829,15	16,56
829,33	21,90
829,50	7,49
829,68	24,53
829,85	15,74
830,02	17,94
830,20	1,21
830,37	20,31
830,55	21,86
830,72	13,26
830,89	20,84
831,07	16,08
831,24	18,49
831,42	11,77
831,59	11,35
831,76	18,17
831,94	19,85
832,11	16,05
832,28	21,89
832,46	10,24
832,63	5,71
832,81	23,60
832,98	0,05
833,15	6,22
833,33	15,32
833,50	7,35
833,67	-8,95
833,85	19,34
834,02	18,37
834,19	9,75
834,37	5,74
834,54	4,74
834,71	2,65
834,89	-5,87
835,06	-8,53
835,23	10,74
835,41	8,83
835,58	8,54
835,75	-9,60
835,93	14,25
836,10	-4,74
836,27	12,96
836,45	14,64
836,62	5,34
836,79	7,81
836,97	19,55
837,14	21,12
837,31	18,84
837,49	-4,16
837,66	12,57
837,83	19,01
838,01	6,25
838,18	4,66
838,35	27,37
838,53	9,23
838,70	8,40
838,87	17,19
839,04	14,06
839,22	14,78
839,39	9,62
839,56	1,56
839,74	22,40
839,91	5,19
840,08	18,82
840,26	29,56
840,43	36,48
840,60	23,36
840,77	42,49
840,95	30,86
841,12	38,32
841,29	34,86
841,46	46,51
841,64	45,53
841,81	51,77
841,98	61,62
842,16	66,80
842,33	54,38
842,50	65,89
842,67	82,49
842,85	80,72
843,02	66,03
843,19	69,20
843,36	64,62
843,54	38,10
843,71	45,72
843,88	50,24
844,05	54,47
844,23	48,83
844,40	28,20
844,57	40,22
844,74	32,13
844,92	32,84
845,09	35,35
845,26	22,38
845,43	16,31
845,61	18,69
845,78	17,44
845,95	22,82
846,12	28,23
846,29	6,91
846,47	22,09
846,64	30,50
846,81	28,00
846,98	20,27
847,16	13,53
847,33	9,74
847,50	10,53
847,67	20,11
847,84	10,08
848,02	7,53
848,19	26,50
848,36	10,26
848,53	5,19
848,70	13,24
848,88	13,91
849,05	17,73
849,22	20,70
849,39	18,69
849,56	17,86
849,74	13,02
849,91	4,52
850,08	16,33
850,25	-3,56
850,42	16,20
850,60	11,31
850,77	26,22
850,94	22,51
851,11	9,56
851,28	8,58
851,45	14,25
851,63	20,06
851,80	30,84
851,97	14,74
852,14	24,81
852,31	31,99
852,48	14,13
852,66	30,04
852,83	24,62
853,00	24,32
853,17	31,52
853,34	7,08
853,51	21,80
853,68	29,95
853,86	11,19
854,03	11,81
854,20	16,03
854,37	20,39
854,54	18,94
854,71	6,53
854,88	7,90
855,06	21,03
855,23	3,70
855,40	34,05
855,57	19,77
855,74	16,78
855,91	13,87
856,08	18,01
856,25	15,44
856,43	0,90
856,60	17,15
856,77	2,40
856,94	17,80
857,11	0,02
857,28	20,20
857,45	18,47
857,62	7,40
857,79	11,56
857,97	5,84
858,14	19,19
858,31	9,39
858,48	10,10
858,65	17,38
858,82	16,17
858,99	-2,34
859,16	13,38
859,33	18,33
859,50	11,69
859,67	7,10
859,85	14,62
860,02	9,39
860,19	5,78
860,36	18,62
860,53	1,91
860,70	11,09
860,87	-3,35
861,04	9,24
861,21	19,47
861,38	-3,90
861,55	4,41
861,72	-2,15
861,89	9,54
862,06	5,53
862,23	3,45
862,41	16,57
862,58	24,67
862,75	8,98
862,92	0,24
863,09	42,54
863,26	20,61
863,43	21,86
863,60	26,93
863,77	2,21
863,94	15,90
864,11	17,42
864,28	10,96
864,45	4,86
864,62	1,20
864,79	13,25
864,96	18,83
865,13	0,10
865,30	21,89
865,47	10,96
865,64	9,60
865,81	18,61
865,98	19,25
866,15	10,26
866,32	3,30
866,49	2,22
866,66	6,53
866,83	10,30
867,00	6,96
867,17	2,55
867,34	22,68
867,51	30,27
867,68	15,91
867,85	15,34
868,02	11,52
868,19	27,36
868,36	-1,62
868,53	3,34
868,70	6,52
868,87	-2,40
869,04	10,10
869,21	3,65
869,38	4,40
869,55	10,24
869,72	9,16
869,89	3,51
870,06	8,79
870,23	-1,88
870,40	19,78
870,57	-0,52
870,74	16,33
870,91	15,79
871,08	9,18
871,25	10,78
871,42	1,96
871,59	18,85
871,76	-2,66
871,93	7,48
872,10	18,19
872,27	0,97
872,44	7,75
872,60	13,13
872,77	8,50
872,94	28,20
873,11	20,49
873,28	10,63
873,45	4,04
873,62	4,06
873,79	20,77
873,96	13,86
874,13	26,86
874,30	14,12
874,47	-9,68
874,64	-1,25
874,81	11,36
874,97	12,47
875,14	0,29
875,31	16,93
875,48	9,96
875,65	6,11
875,82	2,35
875,99	16,93
876,16	8,39
876,33	6,09
876,50	13,58
876,67	16,50
876,83	12,46
877,00	15,56
877,17	3,19
877,34	-0,20
877,51	9,92
877,68	18,08
877,85	23,47
878,02	-4,12
878,19	17,04
878,35	1,17
878,52	22,65
878,69	12,54
878,86	3,95
879,03	24,73
879,20	10,51
879,37	10,10
879,54	11,03
879,70	-0,69
879,87	7,28
880,04	8,21
880,21	9,91
880,38	14,17
880,55	14,20
880,72	10,10
880,89	10,87
881,05	14,61
881,22	8,43
881,39	2,44
881,56	4,32
881,73	16,61
881,90	12,92
882,06	21,87
882,23	9,50
882,40	9,98
882,57	-1,26
882,74	16,34
882,91	29,18
883,07	34,46
883,24	12,54
883,41	13,43
883,58	-10,04
883,75	14,40
883,92	11,58
884,08	-10,68
884,25	11,82
884,42	1,54
884,59	7,41
884,76	4,54
884,92	12,86
885,09	12,23
885,26	18,45
885,43	17,65
885,60	7,52
885,76	29,20
885,93	20,27
886,10	16,24
886,27	5,58
886,44	4,92
886,60	5,64
886,77	-4,73
886,94	12,37
887,11	14,53
887,28	12,85
887,44	15,98
887,61	11,92
887,78	9,45
887,95	-3,38
888,12	10,79
888,28	16,33
888,45	11,13
888,62	-2,02
888,79	27,72
888,95	0,01
889,12	24,62
889,29	2,92
889,46	14,37
889,62	4,21
889,79	-5,65
889,96	9,60
890,13	0,80
890,29	-4,15
890,46	12,39
890,63	12,09
890,80	12,66
890,96	7,01
891,13	-0,48
891,30	12,37
891,47	21,86
891,63	13,44
891,80	10,73
891,97	3,83
892,14	6,16
892,30	7,40
892,47	-4,32
892,64	15,53
892,80	16,64
892,97	3,13
893,14	21,22
893,31	10,29
893,47	21,64
893,64	28,73
893,81	3,59
893,97	8,36
894,14	21,81
>>>>>End Processed Spectral Data<<<<<
