SpectraSuite Datei
++++++++++++++++++++++++++++++++++++
Datum: Mon Dec 11 15:20:08 CET 2017
Benutzer: Praktikum-Pc1
Dark-Spektrum vorhanden: Ja
Referenz-Spektrum vorhanden: Nein
Zahl der probierten Teilspektren: 1
Spektrometer: USB4H10187
Integrationszeit (usec): 150000 (USB4H10187)
Spektren Durchschnitt berechnet: 4 (USB4H10187)
Boxcar Glättung: 0 (USB4H10187)
Dunkelstromkorrektur: Nein (USB4H10187)
Puls/Lampe aktiviert: Nein (USB4H10187)
Correct for Detector Non-linearity: Nein (USB4H10187)
Streulichtkorrektur: Nein (USB4H10187)
Anzahl Pixel in verarbeitetem Spektrum: 3648
>>>>>Begin Processed Spectral Data<<<<<
176,80	-22,02
177,02	-22,02
177,24	-22,02
177,46	-3,07
177,68	1,54
177,91	135,68
178,13	158,72
178,35	128,51
178,57	82,43
178,79	171,52
179,02	227,84
179,24	37,38
179,46	129,02
179,68	67,58
179,90	70,65
180,12	144,38
180,35	135,68
180,57	91,13
180,79	114,69
181,01	113,66
181,23	120,83
181,46	151,55
181,68	164,86
181,90	147,97
182,12	188,41
182,34	196,09
182,56	144,89
182,79	95,23
183,01	96,77
183,23	108,03
183,45	174,59
183,67	40,45
183,89	91,13
184,12	150,01
184,34	150,01
184,56	163,33
184,78	132,61
185,00	189,44
185,22	87,04
185,45	95,74
185,67	147,45
185,89	152,06
186,11	107,52
186,33	153,09
186,55	171,52
186,77	175,61
187,00	110,08
187,22	139,26
187,44	134,14
187,66	109,57
187,88	126,46
188,10	218,11
188,32	84,99
188,55	141,82
188,77	167,42
188,99	129,02
189,21	134,65
189,43	159,23
189,65	139,26
189,87	173,57
190,10	212,48
190,32	185,85
190,54	100,86
190,76	174,08
190,98	118,27
191,20	183,81
191,42	142,85
191,64	139,77
191,87	101,89
192,09	161,28
192,31	121,85
192,53	95,74
192,75	147,45
192,97	114,17
193,19	148,48
193,41	84,48
193,64	195,07
193,86	97,79
194,08	148,48
194,30	78,85
194,52	119,29
194,74	202,24
194,96	64,51
195,18	146,43
195,40	71,17
195,63	128,00
195,85	51,20
196,07	83,45
196,29	164,35
196,51	161,79
196,73	123,39
196,95	175,61
197,17	116,22
197,39	96,77
197,61	204,28
197,84	109,57
198,06	109,05
198,28	116,73
198,50	51,71
198,72	157,69
198,94	140,80
199,16	117,25
199,38	245,24
199,60	65,02
199,82	93,18
200,04	202,75
200,26	146,94
200,49	78,33
200,71	77,82
200,93	158,72
201,15	87,55
201,37	80,89
201,59	115,71
201,81	157,69
202,03	250,88
202,25	117,76
202,47	102,40
202,69	105,98
202,91	134,65
203,13	132,61
203,35	108,54
203,58	88,06
203,80	164,35
204,02	102,91
204,24	-1,54
204,46	195,58
204,68	193,02
204,90	107,01
205,12	156,67
205,34	117,25
205,56	146,94
205,78	172,03
206,00	114,17
206,22	124,41
206,44	157,69
206,66	74,24
206,88	135,68
207,10	79,36
207,32	198,14
207,54	189,44
207,76	96,25
207,99	100,86
208,21	120,32
208,43	157,18
208,65	54,78
208,87	163,33
209,09	132,09
209,31	117,25
209,53	79,87
209,75	220,67
209,97	183,29
210,19	97,79
210,41	110,08
210,63	126,97
210,85	92,67
211,07	184,83
211,29	151,55
211,51	136,19
211,73	191,49
211,95	178,69
212,17	172,54
212,39	155,13
212,61	133,63
212,83	85,50
213,05	146,43
213,27	205,31
213,49	146,94
213,71	140,29
213,93	142,85
214,15	199,16
214,37	172,54
214,59	161,28
214,81	119,29
215,03	141,82
215,25	149,50
215,47	203,77
215,69	147,97
215,91	131,07
216,13	153,09
216,35	178,17
216,57	91,65
216,79	146,94
217,01	154,62
217,23	109,05
217,45	169,47
217,67	168,96
217,89	221,18
218,11	166,91
218,33	149,50
218,55	117,25
218,77	152,57
218,99	74,75
219,21	175,61
219,43	91,65
219,65	174,08
219,87	211,45
220,09	201,72
220,31	129,53
220,53	147,45
220,75	114,17
220,97	102,40
221,19	80,89
221,41	64,51
221,63	144,89
221,85	150,01
222,06	135,68
222,28	161,28
222,50	126,97
222,72	126,46
222,94	101,37
223,16	134,65
223,38	193,02
223,60	83,45
223,82	113,15
224,04	222,20
224,26	142,85
224,48	139,26
224,70	177,66
224,92	102,40
225,14	124,93
225,36	238,08
225,58	75,26
225,80	163,33
226,02	171,01
226,24	105,47
226,45	118,27
226,67	81,92
226,89	28,67
227,11	142,33
227,33	132,61
227,55	43,01
227,77	121,85
227,99	134,14
228,21	141,82
228,43	134,14
228,65	137,73
228,87	154,11
229,09	44,54
229,31	76,29
229,52	139,26
229,74	-4,61
229,96	143,87
230,18	133,12
230,40	155,65
230,62	118,78
230,84	207,87
231,06	-4,10
231,28	115,20
231,50	54,78
231,72	103,93
231,94	121,34
232,15	154,11
232,37	71,68
232,59	92,16
232,81	212,48
233,03	75,26
233,25	158,21
233,47	81,92
233,69	124,93
233,91	76,29
234,13	88,57
234,34	115,20
234,56	119,81
234,78	190,97
235,00	51,20
235,22	132,61
235,44	99,84
235,66	77,31
235,88	59,39
236,10	194,05
236,31	128,00
236,53	137,21
236,75	168,96
236,97	90,62
237,19	157,69
237,41	130,56
237,63	183,29
237,85	138,75
238,07	137,21
238,28	102,91
238,50	160,77
238,72	137,73
238,94	156,67
239,16	120,32
239,38	116,73
239,60	154,62
239,81	106,49
240,03	136,70
240,25	125,44
240,47	171,52
240,69	123,90
240,91	168,96
241,13	214,01
241,34	124,41
241,56	156,16
241,78	165,89
242,00	93,69
242,22	104,45
242,44	174,59
242,66	122,88
242,87	77,82
243,09	146,94
243,31	106,49
243,53	56,83
243,75	173,57
243,97	151,55
244,19	144,89
244,40	203,26
244,62	124,41
244,84	239,10
245,06	165,37
245,28	92,16
245,50	160,25
245,71	217,60
245,93	91,65
246,15	150,53
246,37	158,72
246,59	236,54
246,81	144,89
247,02	72,19
247,24	167,93
247,46	107,52
247,68	180,22
247,90	182,27
248,11	145,41
248,33	118,27
248,55	152,06
248,77	69,12
248,99	130,05
249,21	13,82
249,42	112,13
249,64	194,05
249,86	119,29
250,08	121,34
250,30	131,07
250,51	131,07
250,73	29,70
250,95	122,37
251,17	174,59
251,39	154,11
251,60	233,98
251,82	234,49
252,04	179,20
252,26	102,91
252,48	128,51
252,69	163,84
252,91	161,28
253,13	81,92
253,35	208,38
253,57	152,57
253,78	125,44
254,00	180,73
254,22	155,13
254,44	120,83
254,65	115,71
254,87	114,17
255,09	148,48
255,31	136,19
255,53	103,93
255,74	122,88
255,96	115,20
256,18	143,87
256,40	139,26
256,61	129,02
256,83	262,65
257,05	167,42
257,27	234,49
257,48	102,91
257,70	145,92
257,92	174,59
258,14	187,90
258,36	132,09
258,57	219,13
258,79	120,83
259,01	130,56
259,23	133,12
259,44	88,57
259,66	180,73
259,88	225,28
260,10	127,49
260,31	164,35
260,53	200,19
260,75	108,54
260,97	137,21
261,18	147,45
261,40	199,16
261,62	130,05
261,84	143,87
262,05	122,37
262,27	219,13
262,49	136,70
262,71	158,21
262,92	172,03
263,14	110,08
263,36	108,03
263,57	201,72
263,79	197,12
264,01	161,28
264,23	120,32
264,44	156,16
264,66	169,47
264,88	184,32
265,10	97,28
265,31	198,65
265,53	132,61
265,75	158,21
265,96	152,06
266,18	211,96
266,40	189,44
266,62	195,07
266,83	207,36
267,05	112,64
267,27	172,54
267,48	224,25
267,70	62,46
267,92	152,57
268,14	188,41
268,35	191,49
268,57	176,13
268,79	218,11
269,00	144,89
269,22	152,06
269,44	170,49
269,65	168,96
269,87	98,30
270,09	198,65
270,31	145,92
270,52	206,33
270,74	206,33
270,96	100,35
271,17	172,54
271,39	129,53
271,61	190,97
271,82	189,95
272,04	169,47
272,26	120,83
272,47	194,05
272,69	128,00
272,91	78,85
273,12	159,74
273,34	149,50
273,56	156,16
273,77	134,14
273,99	153,09
274,21	178,17
274,42	125,95
274,64	189,95
274,86	95,23
275,08	141,31
275,29	47,10
275,51	175,10
275,72	148,99
275,94	202,75
276,16	120,83
276,37	133,63
276,59	69,63
276,81	67,07
277,02	175,10
277,24	172,03
277,46	114,69
277,67	81,92
277,89	168,45
278,11	202,24
278,32	173,05
278,54	93,18
278,76	242,68
278,97	193,53
279,19	165,37
279,41	142,33
279,62	124,93
279,84	205,31
280,05	126,46
280,27	144,38
280,49	83,97
280,70	194,05
280,92	138,24
281,14	177,15
281,35	56,32
281,57	134,14
281,79	99,33
282,00	164,35
282,22	255,48
282,43	190,97
282,65	157,69
282,87	88,57
283,08	138,75
283,30	202,24
283,52	237,05
283,73	81,41
283,95	169,47
284,16	102,40
284,38	184,32
284,60	224,25
284,81	153,60
285,03	142,85
285,24	125,44
285,46	161,79
285,68	124,41
285,89	155,65
286,11	103,42
286,32	199,16
286,54	157,69
286,76	124,41
286,97	224,76
287,19	142,85
287,40	168,96
287,62	193,02
287,84	159,23
288,05	162,30
288,27	152,57
288,48	159,23
288,70	166,91
288,92	135,17
289,13	125,95
289,35	112,64
289,56	134,14
289,78	135,68
289,99	185,85
290,21	129,02
290,43	171,01
290,64	104,45
290,86	152,57
291,07	152,06
291,29	206,84
291,51	159,23
291,72	190,97
291,94	209,40
292,15	131,58
292,37	185,85
292,58	171,52
292,80	204,28
293,01	138,24
293,23	184,32
293,45	220,16
293,66	136,70
293,88	241,15
294,09	40,45
294,31	111,10
294,52	144,38
294,74	140,29
294,96	126,46
295,17	97,28
295,39	197,12
295,60	169,98
295,82	138,75
296,03	178,17
296,25	96,25
296,46	175,61
296,68	110,59
296,89	124,41
297,11	88,06
297,32	257,53
297,54	217,60
297,76	120,83
297,97	145,92
298,19	184,32
298,40	205,31
298,62	184,32
298,83	118,27
299,05	173,05
299,26	178,69
299,48	151,04
299,69	182,78
299,91	37,89
300,12	207,36
300,34	231,42
300,55	203,77
300,77	196,09
300,98	39,94
301,20	140,80
301,41	56,83
301,63	124,41
301,84	119,29
302,06	174,59
302,28	128,00
302,49	117,76
302,71	250,36
302,92	41,47
303,14	163,33
303,35	222,72
303,57	99,33
303,78	178,69
304,00	169,98
304,21	133,12
304,43	128,51
304,64	151,04
304,86	104,45
305,07	162,30
305,29	164,86
305,50	109,05
305,71	160,25
305,93	172,54
306,14	238,59
306,36	196,61
306,57	199,16
306,79	148,48
307,00	95,23
307,22	169,47
307,43	123,39
307,65	218,62
307,86	143,36
308,08	168,96
308,29	162,81
308,51	143,87
308,72	199,16
308,94	172,03
309,15	196,09
309,37	173,05
309,58	117,76
309,80	100,86
310,01	174,08
310,22	152,57
310,44	159,23
310,65	197,12
310,87	189,95
311,08	230,40
311,30	100,86
311,51	246,27
311,73	154,62
311,94	120,32
312,16	133,63
312,37	182,27
312,58	189,95
312,80	109,05
313,01	169,47
313,23	158,21
313,44	215,04
313,66	144,89
313,87	227,32
314,09	90,62
314,30	166,91
314,51	192,00
314,73	117,25
314,94	172,54
315,16	145,92
315,37	204,28
315,59	110,08
315,80	83,97
316,01	176,13
316,23	151,04
316,44	201,21
316,66	222,72
316,87	211,45
317,09	167,42
317,30	185,85
317,51	134,14
317,73	156,67
317,94	129,02
318,16	168,96
318,37	101,37
318,58	11,78
318,80	194,05
319,01	131,07
319,23	202,24
319,44	146,94
319,66	159,74
319,87	166,91
320,08	190,97
320,30	156,67
320,51	156,67
320,73	124,41
320,94	208,89
321,15	131,58
321,37	183,29
321,58	141,82
321,80	197,12
322,01	121,85
322,22	91,13
322,44	149,50
322,65	184,32
322,86	165,37
323,08	234,49
323,29	146,43
323,51	126,97
323,72	142,33
323,93	165,89
324,15	143,36
324,36	148,48
324,58	170,49
324,79	204,28
325,00	198,14
325,22	177,66
325,43	183,81
325,64	118,78
325,86	151,04
326,07	142,85
326,28	199,68
326,50	155,13
326,71	120,83
326,93	124,93
327,14	167,93
327,35	99,33
327,57	208,38
327,78	171,52
327,99	259,07
328,21	138,75
328,42	201,21
328,63	187,39
328,85	162,81
329,06	147,45
329,27	113,66
329,49	136,70
329,70	125,44
329,91	213,50
330,13	120,32
330,34	210,43
330,56	73,21
330,77	187,90
330,98	254,97
331,20	162,30
331,41	225,28
331,62	146,94
331,84	168,45
332,05	157,69
332,26	211,45
332,48	197,12
332,69	152,06
332,90	161,79
333,11	124,41
333,33	132,09
333,54	178,17
333,75	98,30
333,97	94,21
334,18	186,88
334,39	237,56
334,61	186,88
334,82	244,73
335,03	159,74
335,25	176,13
335,46	152,57
335,67	196,09
335,89	130,56
336,10	152,06
336,31	180,22
336,53	114,17
336,74	190,97
336,95	185,85
337,16	107,52
337,38	133,63
337,59	291,32
337,80	108,03
338,02	151,04
338,23	200,19
338,44	134,14
338,65	187,90
338,87	207,87
339,08	180,22
339,29	181,76
339,51	180,73
339,72	121,85
339,93	256,51
340,14	183,29
340,36	176,64
340,57	188,41
340,78	93,18
341,00	84,48
341,21	221,18
341,42	290,30
341,63	144,89
341,85	131,58
342,06	117,76
342,27	161,28
342,49	185,85
342,70	199,68
342,91	237,05
343,12	198,65
343,34	199,68
343,55	147,45
343,76	212,48
343,97	178,17
344,19	228,86
344,40	162,81
344,61	197,12
344,82	165,37
345,04	139,77
345,25	169,98
345,46	147,45
345,67	194,56
345,89	157,69
346,10	169,98
346,31	135,68
346,52	126,97
346,74	100,86
346,95	193,53
347,16	120,83
347,37	59,90
347,59	155,13
347,80	172,03
348,01	172,03
348,22	207,87
348,43	137,21
348,65	119,81
348,86	169,98
349,07	230,91
349,28	146,43
349,50	130,56
349,71	186,88
349,92	146,94
350,13	154,62
350,34	109,57
350,56	133,63
350,77	195,58
350,98	192,51
351,19	196,09
351,41	236,03
351,62	257,02
351,83	72,70
352,04	192,51
352,25	186,37
352,47	202,24
352,68	270,84
352,89	89,60
353,10	211,45
353,31	192,51
353,53	179,20
353,74	142,33
353,95	158,72
354,16	206,84
354,37	166,40
354,59	197,12
354,80	197,63
355,01	123,39
355,22	117,25
355,43	121,34
355,65	83,97
355,86	268,28
356,07	169,47
356,28	125,44
356,49	102,91
356,70	178,17
356,92	184,32
357,13	139,26
357,34	183,29
357,55	241,15
357,76	203,77
357,98	85,50
358,19	210,43
358,40	157,18
358,61	122,88
358,82	152,57
359,03	154,62
359,25	227,84
359,46	220,67
359,67	202,24
359,88	136,19
360,09	162,81
360,30	161,28
360,51	128,00
360,73	210,94
360,94	147,45
361,15	126,46
361,36	128,00
361,57	213,50
361,78	169,47
362,00	139,26
362,21	167,93
362,42	254,46
362,63	143,87
362,84	161,28
363,05	93,69
363,26	134,65
363,48	151,55
363,69	159,23
363,90	166,40
364,11	139,26
364,32	84,48
364,53	131,07
364,74	138,75
364,95	157,18
365,17	133,12
365,38	224,25
365,59	202,24
365,80	198,14
366,01	86,53
366,22	178,69
366,43	90,11
366,64	146,43
366,86	164,86
367,07	147,97
367,28	175,10
367,49	149,50
367,70	198,14
367,91	103,93
368,12	84,99
368,33	130,56
368,54	237,05
368,76	166,91
368,97	179,20
369,18	139,26
369,39	119,81
369,60	126,97
369,81	154,62
370,02	156,16
370,23	146,94
370,44	107,01
370,65	130,05
370,87	153,09
371,08	176,13
371,29	141,82
371,50	194,56
371,71	193,53
371,92	221,18
372,13	169,47
372,34	130,05
372,55	102,91
372,76	201,72
372,97	197,63
373,18	235,00
373,40	100,86
373,61	146,43
373,82	135,68
374,03	176,64
374,24	166,91
374,45	134,14
374,66	220,16
374,87	278,52
375,08	126,46
375,29	173,05
375,50	180,73
375,71	110,08
375,92	201,21
376,13	129,02
376,34	162,81
376,56	188,41
376,77	221,18
376,98	198,65
377,19	201,72
377,40	152,06
377,61	239,61
377,82	131,07
378,03	187,39
378,24	134,14
378,45	180,22
378,66	116,22
378,87	139,26
379,08	159,23
379,29	168,96
379,50	236,54
379,71	68,61
379,92	118,78
380,13	134,14
380,34	186,88
380,55	216,06
380,76	187,39
380,97	250,88
381,18	180,22
381,39	185,85
381,60	222,72
381,81	115,20
382,02	182,78
382,24	161,79
382,45	129,02
382,66	129,53
382,87	197,12
383,08	197,12
383,29	152,57
383,50	241,15
383,71	182,78
383,92	146,94
384,13	104,96
384,34	224,25
384,55	178,69
384,76	120,83
384,97	125,44
385,18	144,38
385,39	135,68
385,60	133,63
385,81	196,09
386,02	206,84
386,23	174,59
386,44	117,25
386,65	193,02
386,86	157,69
387,07	203,26
387,28	151,55
387,49	168,96
387,70	132,09
387,91	202,24
388,12	163,33
388,32	129,53
388,53	148,48
388,74	177,66
388,95	122,37
389,16	140,29
389,37	123,90
389,58	175,61
389,79	205,82
390,00	148,99
390,21	212,48
390,42	137,73
390,63	198,65
390,84	131,58
391,05	204,28
391,26	249,85
391,47	114,17
391,68	135,68
391,89	159,23
392,10	203,77
392,31	212,48
392,52	185,85
392,73	39,42
392,94	224,25
393,15	121,85
393,36	216,57
393,57	174,08
393,78	201,72
393,98	216,06
394,19	136,70
394,40	202,75
394,61	131,07
394,82	174,59
395,03	187,90
395,24	204,28
395,45	130,56
395,66	203,26
395,87	93,18
396,08	141,31
396,29	230,91
396,50	160,77
396,71	201,72
396,92	133,63
397,12	228,35
397,33	197,63
397,54	127,49
397,75	189,44
397,96	153,09
398,17	150,53
398,38	160,25
398,59	177,15
398,80	87,04
399,01	204,28
399,22	176,13
399,43	144,38
399,63	217,08
399,84	196,61
400,05	217,08
400,26	117,25
400,47	196,61
400,68	210,94
400,89	194,05
401,10	154,62
401,31	185,34
401,52	132,61
401,72	206,33
401,93	175,10
402,14	197,63
402,35	255,48
402,56	235,00
402,77	207,87
402,98	214,52
403,19	190,97
403,40	231,93
403,60	213,50
403,81	249,85
404,02	181,25
404,23	265,21
404,44	217,08
404,65	221,69
404,86	212,99
405,07	179,71
405,27	207,87
405,48	175,61
405,69	180,73
405,90	248,32
406,11	240,12
406,32	268,80
406,53	217,60
406,74	270,84
406,94	181,76
407,15	226,81
407,36	185,85
407,57	212,48
407,78	245,24
407,99	263,68
408,20	270,84
408,40	305,15
408,61	244,73
408,82	353,27
409,03	228,86
409,24	268,28
409,45	252,41
409,65	298,49
409,86	331,77
410,07	230,91
410,28	269,82
410,49	346,62
410,70	379,90
410,90	363,51
411,11	366,59
411,32	333,82
411,53	358,39
411,74	375,80
411,95	413,69
412,15	455,16
412,36	274,94
412,57	419,83
412,78	400,38
412,99	413,18
413,20	374,78
413,40	381,95
413,61	464,89
413,82	473,08
414,03	438,27
414,24	494,07
414,44	499,19
414,65	487,93
414,86	457,21
415,07	575,99
415,28	565,75
415,48	582,14
415,69	533,50
415,90	596,47
416,11	615,93
416,32	666,61
416,53	585,72
416,73	700,92
416,94	674,81
417,15	757,24
417,36	724,98
417,56	734,71
417,77	696,31
417,98	775,67
418,19	902,64
418,40	868,34
418,60	856,56
418,81	900,59
419,02	937,46
419,23	904,18
419,44	866,29
419,64	999,41
419,85	1118,19
420,06	1074,16
420,27	1169,39
420,47	1107,44
420,68	1189,36
420,89	1229,81
421,10	1273,32
421,30	1372,65
421,51	1401,32
421,72	1422,31
421,93	1400,30
422,14	1581,54
422,34	1506,28
422,55	1577,96
422,76	1637,86
422,97	1724,90
423,17	1794,02
423,38	1794,02
423,59	1766,89
423,80	1930,72
424,00	1927,65
424,21	2107,36
424,42	2102,75
424,63	2154,98
424,83	2225,12
425,04	2441,69
425,25	2359,77
425,46	2616,79
425,66	2564,06
425,87	2709,46
426,08	2702,29
426,28	2896,34
426,49	2845,14
426,70	3018,19
426,91	3116,50
427,11	3231,69
427,32	3300,30
427,53	3399,63
427,74	3514,83
427,94	3582,41
428,15	3797,45
428,36	3863,49
428,56	3946,95
428,77	4158,40
428,98	4159,94
429,19	4321,73
429,39	4432,32
429,60	4573,63
429,81	4736,44
430,01	4830,65
430,22	4928,44
430,43	5112,75
430,64	5181,36
430,84	5304,75
431,05	5585,32
431,26	5720,49
431,46	5876,13
431,67	6005,16
431,88	6377,37
432,08	6416,29
432,29	6665,11
432,50	6744,47
432,70	6951,83
432,91	7128,98
433,12	7455,63
433,33	7483,79
433,53	7742,86
433,74	8041,86
433,95	8120,20
434,15	8164,23
434,36	8611,71
434,57	8724,35
434,77	8867,19
434,98	9197,94
435,19	9268,59
435,39	9522,54
435,60	9886,06
435,81	10306,40
436,01	10269,54
436,22	10720,09
436,43	11027,80
436,63	11407,70
436,84	11537,23
437,05	11825,48
437,25	11727,18
437,46	12294,98
437,67	12631,87
437,87	12645,70
438,08	12796,73
438,29	13427,51
438,49	13553,97
438,70	13641,52
438,91	14227,75
439,11	14968,60
439,32	15268,63
439,52	15099,67
439,73	15202,58
439,94	15677,20
440,14	16260,36
440,35	16769,79
440,56	16601,35
440,76	17045,76
440,97	17592,56
441,18	17897,20
441,38	18013,42
441,59	18710,24
441,79	19120,35
442,00	19555,54
442,21	19826,39
442,41	20269,26
442,62	20159,18
442,83	20877,51
443,03	21198,01
443,24	21695,16
443,44	22897,31
443,65	23272,09
443,86	23121,06
444,06	23969,94
444,27	24481,93
444,48	24951,94
444,68	25237,63
444,89	26063,99
445,09	27085,92
445,30	26741,35
445,51	28009,56
445,71	28206,16
445,92	28544,59
446,12	29610,56
446,33	29979,70
446,54	30589,49
446,74	31220,77
446,95	30565,93
447,15	32258,58
447,36	32521,74
447,57	32643,09
447,77	33558,53
447,98	34190,84
448,18	34202,61
448,39	34280,44
448,59	35825,12
448,80	36136,92
449,01	36664,27
449,21	36715,47
449,42	37474,24
449,62	38808,50
449,83	38362,55
450,04	38399,93
450,24	40020,38
450,45	39828,90
450,65	40049,05
450,86	40767,38
451,06	41738,12
451,27	42140,54
451,47	41192,84
451,68	41594,76
451,89	42142,59
452,09	42664,31
452,30	41872,26
452,50	42763,12
452,71	43951,46
452,91	43590,50
453,12	43614,57
453,33	43602,28
453,53	42538,36
453,74	44593,50
453,94	43351,91
454,15	42448,76
454,35	42418,04
454,56	43263,34
454,76	44235,10
454,97	42568,57
455,17	42790,26
455,38	43325,80
455,58	42927,47
455,79	42051,45
456,00	42076,03
456,20	41684,87
456,41	42067,84
456,61	39964,57
456,82	39671,71
457,02	40509,33
457,23	40087,45
457,43	40061,34
457,64	38575,54
457,84	37935,55
458,05	38046,14
458,25	37470,15
458,46	37574,08
458,66	36788,17
458,87	36661,20
459,07	36470,23
459,28	35372,00
459,48	34765,29
459,69	34562,03
459,89	33753,08
460,10	33878,01
460,30	33982,97
460,51	33083,40
460,71	32626,19
460,92	32150,04
461,12	31829,02
461,33	31752,22
461,53	30303,79
461,74	29867,58
461,94	29512,77
462,15	29712,95
462,35	29130,82
462,56	28364,88
462,76	28059,22
462,97	28010,07
463,17	27198,05
463,38	27020,39
463,58	26418,80
463,79	27091,04
463,99	26195,57
464,20	26035,83
464,40	25497,72
464,61	24874,63
464,81	25271,42
465,02	24381,07
465,22	24380,04
465,43	24442,51
465,63	23493,79
465,83	23187,10
466,04	23574,17
466,24	22667,43
466,45	23482,01
466,65	22367,91
466,86	22222,51
467,06	21921,97
467,27	21616,82
467,47	21933,23
467,68	21387,96
467,88	21042,37
468,08	20998,34
468,29	20632,77
468,49	20612,29
468,70	20462,28
468,90	20227,79
469,11	20259,02
469,31	19883,73
469,52	19546,33
469,72	20406,47
469,92	19451,61
470,13	19391,19
470,33	19234,52
470,54	18668,26
470,74	18801,38
470,95	18715,87
471,15	18644,20
471,35	18179,31
471,56	17879,28
471,76	18171,11
471,97	17789,68
472,17	17623,28
472,38	17529,59
472,58	17543,41
472,78	17390,84
472,99	17150,71
473,19	16849,66
473,40	17014,52
473,60	16285,96
473,80	16592,13
474,01	16420,61
474,21	16396,04
474,42	16314,12
474,62	16477,44
474,83	15698,19
475,03	15899,92
475,23	15750,93
475,44	15803,66
475,64	15762,19
475,85	15313,17
476,05	15020,31
476,25	15117,08
476,46	15159,06
476,66	14883,61
476,86	14664,99
477,07	14603,55
477,27	14739,23
477,48	14349,09
477,68	14177,06
477,88	14485,79
478,09	13935,40
478,29	14064,94
478,50	13866,80
478,70	13646,64
478,90	13586,22
479,11	13549,87
479,31	13591,34
479,51	13502,26
479,72	13241,14
479,92	13126,97
480,12	12998,97
480,33	12980,03
480,53	12758,85
480,74	12787,52
480,94	12648,77
481,14	12685,63
481,35	12605,76
481,55	12449,60
481,75	12219,21
481,96	12373,32
482,16	12065,61
482,36	12271,94
482,57	12175,17
482,77	11914,06
482,97	12063,05
483,18	11937,61
483,38	11945,80
483,58	11784,01
483,79	11513,68
483,99	11691,34
484,19	11625,81
484,40	11434,32
484,60	11359,57
484,80	11492,69
485,01	11525,46
485,21	11383,12
485,41	11107,16
485,62	11387,22
485,82	11230,04
486,02	11144,02
486,23	11171,16
486,43	11089,75
486,63	11027,29
486,84	11153,75
487,04	10967,38
487,24	10954,07
487,45	10875,74
487,65	10914,65
487,85	10778,46
488,06	10921,82
488,26	10664,80
488,46	10725,72
488,67	10699,61
488,87	10739,55
489,07	10604,89
489,27	10816,86
489,48	10691,93
489,68	10605,41
489,88	10623,33
490,09	10683,74
490,29	10588,51
490,49	10596,19
490,70	10713,44
490,90	10575,20
491,10	10454,37
491,30	10654,56
491,51	10362,21
491,71	10658,65
491,91	10574,69
492,12	10451,81
492,32	10394,98
492,52	10533,73
492,72	10468,19
492,93	10470,75
493,13	10549,60
493,33	10642,27
493,53	10565,98
493,74	10528,10
493,94	10732,89
494,14	10652,51
494,34	10616,67
494,55	10746,20
494,75	10772,32
494,95	10738,52
495,16	10781,53
495,36	10767,71
495,56	10768,73
495,76	10827,61
495,97	10866,01
496,17	10994,01
496,37	10908,51
496,57	11141,97
496,78	11036,50
496,98	11137,37
497,18	11146,58
497,38	11133,27
497,59	11224,92
497,79	11194,20
497,99	11305,81
498,19	11361,62
498,39	11557,71
498,60	11482,45
498,80	11592,02
499,00	11616,08
499,20	11771,21
499,41	11764,04
499,61	11802,96
499,81	11903,31
500,01	11939,15
500,22	12037,45
500,42	12038,47
500,62	12229,45
500,82	12379,97
501,02	12413,25
501,23	12408,13
501,43	12569,92
501,63	12666,69
501,83	12708,16
502,03	12692,80
502,24	12797,24
502,44	12831,55
502,64	13125,94
502,84	13240,12
503,05	13263,16
503,25	13447,99
503,45	13386,04
503,65	13604,14
503,85	13619,50
504,06	13705,52
504,26	13816,11
504,46	14055,21
504,66	14018,35
504,86	14270,25
505,06	14216,49
505,27	14315,30
505,47	14612,77
505,67	14716,70
505,87	14696,74
506,07	15030,55
506,28	15188,76
506,48	15133,47
506,68	15472,40
506,88	15340,31
507,08	15552,79
507,28	15795,47
507,49	15786,26
507,69	15875,34
507,89	15827,73
508,09	16228,10
508,29	16457,99
508,49	16398,60
508,70	16587,01
508,90	16822,02
509,10	16769,79
509,30	16711,94
509,50	17029,88
509,70	17279,22
509,91	17453,81
510,11	17559,28
510,31	17574,64
510,51	17620,21
510,71	18025,71
510,91	18082,03
511,11	18235,63
511,32	18406,12
511,52	18433,77
511,72	18633,96
511,92	18583,78
512,12	18740,96
512,32	18764,00
512,52	18982,62
512,73	19278,04
512,93	19501,78
513,13	19527,89
513,33	19915,98
513,53	20017,36
513,73	20299,47
513,93	20030,67
514,13	20206,80
514,34	20387,02
514,54	20778,69
514,74	20806,85
514,94	20987,58
515,14	21014,21
515,34	21099,20
515,54	21083,84
515,74	21540,02
515,94	21499,06
516,15	21774,00
516,35	21971,63
516,55	21920,95
516,75	22130,86
516,95	22353,07
517,15	22500,01
517,35	22586,54
517,55	22777,51
517,75	23134,88
517,95	23011,49
518,16	23285,92
518,36	23195,81
518,56	23558,81
518,76	23660,18
518,96	23850,64
519,16	23768,73
519,36	24201,36
519,56	24290,96
519,76	24582,28
519,96	24384,14
520,16	24778,37
520,37	24746,12
520,57	25012,35
520,77	25028,74
520,97	25089,15
521,17	25190,53
521,37	25519,74
521,57	25518,71
521,77	25534,07
521,97	25638,01
522,17	25620,09
522,37	26288,24
522,57	25956,98
522,77	26301,55
522,97	26531,95
523,17	26596,46
523,37	26432,62
523,58	26668,14
523,78	26645,61
523,98	26969,70
524,18	26963,56
524,38	27227,74
524,58	27398,75
524,78	27231,84
524,98	27677,27
525,18	27646,04
525,38	27682,91
525,58	27673,69
525,78	27997,78
525,98	28115,03
526,18	28098,13
526,38	28114,00
526,58	28340,30
526,78	28102,74
526,98	28332,62
527,18	28388,43
527,38	28499,53
527,58	28545,10
527,78	28735,05
527,98	28665,93
528,18	28708,94
528,38	28820,55
528,58	28799,56
528,78	29157,44
528,98	29135,43
529,18	29087,30
529,38	29244,99
529,58	29430,85
529,78	29668,41
529,98	29248,58
530,18	29740,60
530,38	29725,24
530,58	29750,33
530,78	30087,73
530,98	29985,85
531,18	30146,10
531,38	30161,97
531,58	30506,03
531,78	30290,99
531,98	30327,86
532,18	30347,31
532,38	30539,31
532,58	30410,80
532,78	30625,32
532,98	30695,98
533,18	30506,54
533,38	30557,23
533,58	30824,49
533,78	30674,99
533,98	30721,58
534,18	30707,76
534,38	30904,36
534,58	31152,16
534,78	31177,25
534,98	31356,96
535,18	31229,99
535,38	31467,04
535,58	31421,98
535,78	31336,99
535,98	31441,95
536,18	31494,69
536,38	31424,54
536,58	31730,20
536,78	31420,96
536,98	31329,31
537,18	31746,59
537,38	31579,17
537,58	31661,60
537,78	31814,68
537,98	31485,98
538,17	31826,46
538,37	31553,57
538,57	31732,25
538,77	31671,84
538,97	31801,88
539,17	31779,87
539,37	32024,60
539,57	31778,84
539,77	31917,59
539,97	31766,56
540,17	31732,25
540,37	31821,34
540,57	31734,30
540,77	31919,13
540,97	31726,62
541,16	31735,32
541,36	31741,98
541,56	31766,04
541,76	31493,66
541,96	31873,56
542,16	31646,75
542,36	31902,75
542,56	31638,05
542,76	32029,21
542,96	31854,62
543,16	31886,87
543,36	32000,02
543,55	31782,94
543,75	32063,00
543,95	31839,26
544,15	31883,29
544,35	31664,16
544,55	32074,26
544,75	32008,73
544,95	32476,18
545,15	31850,52
545,35	31968,28
545,54	32118,81
545,74	31934,49
545,94	31623,20
546,14	31887,39
546,34	31894,04
546,54	31803,93
546,74	31655,96
546,94	31613,47
547,14	31674,91
547,33	31768,60
547,53	31394,85
547,73	31629,85
547,93	31635,49
548,13	31611,93
548,33	31820,83
548,53	31899,16
548,72	31504,42
548,92	31725,60
549,12	31459,36
549,32	31433,76
549,52	31572,00
549,72	31564,32
549,92	31500,83
550,12	31190,56
550,31	31708,70
550,51	31081,51
550,71	31609,89
550,91	31508,51
551,11	31371,30
551,31	31519,26
551,50	31177,25
551,70	31268,39
551,90	31552,54
552,10	31381,03
552,30	31178,79
552,50	31015,46
552,70	31034,41
552,89	30968,87
553,09	31261,22
553,29	31311,91
553,49	31343,14
553,69	31371,81
553,88	31242,28
554,08	31133,73
554,28	31044,65
554,48	31050,79
554,68	31017,00
554,88	31185,44
555,07	31046,69
555,27	30960,68
555,47	30984,74
555,67	31055,91
555,87	31163,43
556,06	30682,16
556,26	30936,62
556,46	30867,50
556,66	30761,51
556,86	30454,83
557,06	30580,78
557,25	30673,96
557,45	30749,23
557,65	30938,15
557,85	30915,62
558,05	30800,43
558,24	30718,51
558,44	30875,69
558,64	30951,46
558,84	30902,82
559,03	30444,59
559,23	30523,95
559,43	30629,93
559,63	30284,85
559,83	30546,99
560,02	30489,65
560,22	30606,89
560,42	30596,14
560,62	30578,73
560,82	30242,35
561,01	30222,39
561,21	29890,10
561,41	30017,08
561,61	30206,52
561,80	30326,83
562,00	30224,95
562,20	29985,33
562,40	30515,25
562,59	30117,43
562,79	29909,56
562,99	29791,80
563,19	30154,80
563,38	29915,70
563,58	30020,66
563,78	30132,28
563,98	30064,18
564,17	29985,85
564,37	29792,31
564,57	29869,62
564,77	29711,42
564,96	29746,23
565,16	29641,28
565,36	29807,67
565,56	29753,40
565,75	29663,80
565,95	29573,69
566,15	29612,60
566,35	29661,76
566,54	29443,13
566,74	29665,85
566,94	29322,82
567,14	29397,57
567,33	29586,49
567,53	29499,97
567,73	29468,22
567,92	29420,10
568,12	29561,40
568,32	29235,27
568,52	29332,54
568,71	29032,00
568,91	29376,06
569,11	29588,03
569,30	28985,93
569,50	29292,61
569,70	29126,21
569,90	29013,06
570,09	29309,50
570,29	29132,87
570,49	29270,59
570,68	28900,93
570,88	28739,15
571,08	29225,03
571,27	28920,90
571,47	29149,76
571,67	28978,25
571,87	28939,33
572,06	28627,02
572,26	28471,89
572,46	28737,61
572,65	28384,85
572,85	28507,21
573,05	28715,59
573,24	28467,28
573,44	28508,75
573,64	28786,25
573,83	28595,28
574,03	28484,17
574,23	28757,07
574,42	28487,25
574,62	28478,03
574,82	28515,40
575,01	28172,37
575,21	28344,91
575,41	28529,74
575,60	28338,77
575,80	28310,10
576,00	28504,65
576,19	28531,28
576,39	27965,53
576,59	28439,12
576,78	28423,25
576,98	27935,83
577,18	27952,73
577,37	27993,68
577,57	28218,45
577,77	28142,67
577,96	27928,15
578,16	28120,15
578,35	28020,82
578,55	27532,38
578,75	27989,08
578,94	27689,05
579,14	28038,23
579,34	27877,97
579,53	27699,80
579,73	27554,91
579,93	27462,75
580,12	27580,00
580,32	27489,88
580,51	27641,43
580,71	27468,89
580,91	27446,37
581,10	27358,30
581,30	27290,21
581,50	27261,54
581,69	27033,19
581,89	27023,97
582,08	27019,88
582,28	26958,95
582,48	27038,82
582,67	26677,86
582,87	26760,81
583,06	26830,44
583,26	26735,21
583,46	26785,38
583,65	26343,53
583,85	26479,21
584,04	26499,69
584,24	26270,83
584,44	26392,17
584,63	26592,36
584,83	26548,84
585,02	26489,96
585,22	26443,37
585,42	26444,91
585,61	26224,24
585,81	26136,18
586,00	26122,87
586,20	26151,54
586,39	25880,18
586,59	25650,30
586,79	25803,89
586,98	25543,80
587,18	25839,22
587,37	25702,52
587,57	25588,86
587,76	25451,13
587,96	25395,32
588,16	25510,01
588,35	25144,96
588,55	25021,06
588,74	25426,56
588,94	25152,13
589,13	25187,97
589,33	25142,40
589,52	25077,89
589,72	25021,57
589,92	24787,08
590,11	24828,55
590,31	24560,27
590,50	24861,83
590,70	24528,01
590,89	24486,54
591,09	24186,51
591,28	24441,48
591,48	24343,18
591,67	24281,23
591,87	24474,25
592,06	24094,35
592,26	23927,95
592,46	23872,66
592,65	23989,39
592,85	23670,93
593,04	23876,24
593,24	23591,06
593,43	23555,22
593,63	23587,48
593,82	23442,07
594,02	23380,64
594,21	23657,11
594,41	23307,93
594,60	23311,00
594,80	23307,42
594,99	23082,14
595,19	23126,18
595,38	23270,56
595,58	22965,92
595,77	22790,82
595,97	22773,92
596,16	22636,20
596,36	22522,02
596,55	22522,02
596,75	22530,22
596,94	22204,59
597,14	22247,60
597,33	22249,13
597,53	22250,16
597,72	22302,38
597,92	22332,08
598,11	22285,48
598,31	22182,06
598,50	21911,22
598,70	21881,52
598,89	21762,23
599,09	21767,35
599,28	21593,27
599,48	21443,77
599,67	21661,37
599,87	21514,94
600,06	21237,44
600,26	20949,70
600,45	21255,36
600,64	21089,98
600,84	20884,16
601,03	21140,67
601,23	20886,21
601,42	20960,45
601,62	20767,94
601,81	20709,57
602,01	20651,72
602,20	20670,15
602,40	20705,48
602,59	20328,14
602,78	20730,05
602,98	20423,88
603,17	20367,05
603,37	20294,86
603,56	20353,23
603,76	20212,94
603,95	20148,43
604,15	19987,15
604,34	19975,38
604,53	19644,63
604,73	19722,96
604,92	19403,99
605,12	19652,82
605,31	19548,89
605,51	19550,42
605,70	19492,57
605,89	19317,98
606,09	19179,23
606,28	19150,04
606,48	19379,42
606,67	19014,88
606,87	19158,24
607,06	19017,95
607,25	18943,71
607,45	19123,42
607,64	18733,28
607,84	18914,02
608,03	18762,47
608,22	18735,84
608,42	18644,20
608,61	18439,91
608,81	18428,65
609,00	18393,83
609,19	18322,66
609,39	18425,06
609,58	18235,63
609,78	18256,11
609,97	18055,92
610,16	17840,37
610,36	17889,01
610,55	17708,27
610,75	17895,66
610,94	17609,97
611,13	17694,45
611,33	17804,53
611,52	17624,31
611,71	17466,10
611,91	17554,68
612,10	17511,16
612,30	17478,39
612,49	17363,19
612,68	17277,18
612,88	17071,87
613,07	17046,27
613,26	17078,52
613,46	16956,67
613,65	16897,28
613,84	17136,89
614,04	16936,70
614,23	16636,16
614,43	16828,67
614,62	16858,88
614,81	16860,93
615,01	16785,66
615,20	16856,83
615,39	16734,98
615,59	16636,16
615,78	16395,53
615,97	16486,66
616,17	16463,62
616,36	16482,05
616,55	16558,34
616,75	16383,75
616,94	16228,10
617,13	16228,62
617,33	16256,78
617,52	16354,05
617,71	16316,68
617,91	16272,14
618,10	16146,70
618,29	16251,14
618,49	16012,04
618,68	16155,40
618,87	15949,07
619,07	16025,36
619,26	15880,97
619,45	15904,53
619,65	15893,77
619,84	15950,60
620,03	15800,59
620,22	15785,74
620,42	15629,59
620,61	15798,54
620,80	15721,23
621,00	15661,84
621,19	15827,21
621,38	15718,67
621,58	15688,46
621,77	15740,69
621,96	15658,26
622,15	15601,43
622,35	15507,73
622,54	15484,69
622,73	15571,73
622,93	15425,30
623,12	15246,10
623,31	15248,15
623,50	15398,68
623,70	15289,11
623,89	15292,18
624,08	15000,86
624,28	15198,49
624,47	15067,42
624,66	15114,52
624,85	15215,38
625,05	15035,16
625,24	14957,34
625,43	15190,81
625,62	14839,58
625,82	14904,09
626,01	14834,97
626,20	14827,29
626,39	14857,50
626,59	14917,40
626,78	14891,80
626,97	14922,01
627,17	14776,09
627,36	14701,34
627,55	14730,53
627,74	14589,22
627,93	14496,03
628,13	14402,34
628,32	14233,89
628,51	14355,75
628,70	14374,69
628,90	14382,88
629,09	14378,28
629,28	14314,79
629,47	14361,89
629,67	14092,07
629,86	14124,84
630,05	14209,32
630,24	14097,19
630,44	13978,41
630,63	14041,90
630,82	13903,15
631,01	13799,73
631,20	13564,21
631,40	13549,36
631,59	13698,35
631,78	13674,29
631,97	13565,74
632,16	13642,03
632,36	13508,91
632,55	13308,21
632,74	13510,45
632,93	13260,60
633,13	13360,95
633,32	13331,25
633,51	13300,02
633,70	13163,32
633,89	13190,97
634,09	13119,80
634,28	13091,13
634,47	12923,19
634,66	12872,51
634,85	12736,83
635,04	12865,85
635,24	12685,63
635,43	12726,08
635,62	12525,89
635,81	12539,71
636,00	12479,30
636,20	12529,98
636,39	12403,52
636,58	12342,60
636,77	12275,01
636,96	12242,76
637,15	12116,81
637,35	12145,48
637,54	12078,92
637,73	12079,43
637,92	11959,11
638,11	12056,90
638,30	11821,39
638,50	11842,89
638,69	11785,04
638,88	11747,15
639,07	11568,46
639,26	11747,66
639,45	11576,66
639,64	11503,44
639,84	11541,84
640,03	11381,07
640,22	11344,72
640,41	11498,83
640,60	11275,09
640,79	11213,14
640,98	11166,04
641,18	10964,82
641,37	11050,84
641,56	10969,94
641,75	11035,99
641,94	10891,61
642,13	10929,50
642,32	10907,48
642,52	10738,52
642,71	10764,12
642,90	10779,48
643,09	10561,37
643,28	10556,77
643,47	10497,38
643,66	10530,14
643,85	10211,68
644,04	10357,09
644,24	10227,56
644,43	10245,99
644,62	10112,36
644,81	10145,64
645,00	10237,80
645,19	10099,56
645,38	10122,60
645,57	10063,21
645,76	9952,10
645,96	9895,78
646,15	9720,17
646,34	9714,54
646,53	9548,65
646,72	9676,14
646,91	9592,69
647,10	9386,35
647,29	9626,99
647,48	9562,99
647,67	9373,55
647,86	9403,76
648,05	9401,20
648,25	9274,23
648,44	9208,18
648,63	9234,29
648,82	9150,84
649,01	9146,74
649,20	9027,45
649,39	8963,45
649,58	8975,74
649,77	8744,83
649,96	8820,09
650,15	8777,59
650,34	8651,13
650,53	8794,49
650,72	8759,16
650,91	8679,29
651,11	8711,04
651,30	8646,52
651,49	8488,32
651,68	8470,40
651,87	8360,83
652,06	8420,22
652,25	8329,09
652,44	8233,35
652,63	8182,15
652,82	8285,57
653,01	8257,92
653,20	8021,89
653,39	8044,42
653,58	8046,98
653,77	7993,22
653,96	7983,49
654,15	7968,13
654,34	7966,60
654,53	7860,10
654,72	7796,11
654,91	7698,31
655,10	7634,83
655,29	7573,39
655,48	7707,02
655,67	7521,68
655,86	7558,54
656,05	7554,96
656,24	7387,02
656,43	7465,36
656,62	7384,98
656,81	7323,54
657,00	7322,00
657,19	7363,47
657,38	7335,82
657,57	7247,76
657,76	7229,84
657,95	7122,32
658,14	7023,51
658,33	7067,54
658,52	6918,55
658,71	6939,03
658,90	6804,89
659,09	6826,90
659,28	6781,85
659,47	6719,90
659,66	6746,52
659,85	6760,86
660,04	6753,18
660,23	6675,35
660,42	6577,05
660,61	6664,60
660,80	6604,19
660,99	6555,04
661,18	6555,55
661,37	6490,01
661,56	6356,90
661,75	6302,11
661,94	6244,26
662,13	6326,69
662,32	6164,90
662,51	6315,42
662,70	6322,08
662,89	6153,63
663,08	6161,83
663,27	6185,89
663,46	6019,49
663,65	6077,35
663,83	6037,92
664,02	6027,17
664,21	5995,43
664,40	5924,26
664,59	5942,69
664,78	5902,25
664,97	5896,61
665,16	5801,90
665,35	5851,05
665,54	5818,79
665,73	5786,54
665,92	5734,31
666,11	5536,17
666,30	5708,20
666,49	5599,66
666,67	5578,15
666,86	5511,08
667,05	5490,60
667,24	5428,65
667,43	5352,88
667,62	5366,19
667,81	5282,22
668,00	5370,80
668,19	5282,74
668,38	5343,15
668,57	5373,87
668,76	5291,44
668,94	5095,86
669,13	5191,60
669,32	5159,86
669,51	5077,43
669,70	5169,59
669,89	5079,47
670,08	5079,47
670,27	5022,13
670,46	5030,32
670,64	5019,57
670,83	5115,83
671,02	4940,21
671,21	4897,72
671,40	4816,31
671,59	4899,77
671,78	4723,13
671,97	4806,58
672,16	4695,48
672,34	4744,12
672,53	4819,89
672,72	4665,78
672,91	4758,46
673,10	4733,88
673,29	4697,53
673,48	4596,67
673,66	4556,73
673,85	4642,75
674,04	4521,40
674,23	4475,84
674,42	4405,69
674,61	4517,31
674,80	4423,10
674,98	4423,61
675,17	4464,06
675,36	4265,92
675,55	4368,83
675,74	4349,89
675,93	4347,84
676,12	4294,59
676,30	4366,78
676,49	4238,78
676,68	4179,39
676,87	4172,22
677,06	4168,13
677,25	4143,55
677,43	4101,06
677,62	4182,98
677,81	4090,82
678,00	4116,42
678,19	4004,80
678,37	4019,14
678,56	3985,86
678,75	3953,09
678,94	3898,82
679,13	3877,32
679,32	3847,62
679,50	3864,52
679,69	3885,00
679,88	3789,25
680,07	3837,89
680,26	3867,08
680,44	3806,15
680,63	3709,38
680,82	3621,83
681,01	3705,80
681,20	3697,61
681,38	3665,35
681,57	3693,51
681,76	3674,06
681,95	3636,17
682,14	3624,90
682,32	3590,60
682,51	3513,80
682,70	3563,47
682,89	3475,91
683,07	3537,87
683,26	3452,36
683,45	3419,60
683,64	3492,81
683,83	3448,27
684,01	3427,28
684,20	3352,52
684,39	3446,22
684,58	3358,67
684,76	3375,56
684,95	3317,20
685,14	3330,00
685,33	3294,67
685,52	3328,97
685,70	3302,86
685,89	3189,20
686,08	3295,18
686,27	3092,94
686,45	3172,82
686,64	3208,14
686,83	3227,60
687,02	3133,39
687,20	3210,19
687,39	3116,50
687,58	3143,12
687,76	3060,18
687,95	3060,18
688,14	3146,70
688,33	3146,19
688,51	3109,33
688,70	2981,33
688,89	3036,11
689,08	3100,62
689,26	3056,59
689,45	2968,53
689,64	2970,07
689,83	2888,15
690,01	2884,56
690,20	2974,67
690,39	2972,11
690,57	2884,05
690,76	2925,01
690,95	2863,57
691,14	2891,73
691,32	2789,33
691,51	2808,79
691,70	2869,72
691,88	2804,69
692,07	2814,93
692,26	2670,04
692,44	2722,77
692,63	2720,21
692,82	2653,14
693,01	2564,06
693,19	2587,61
693,38	2689,49
693,57	2613,21
693,75	2671,58
693,94	2550,75
694,13	2546,65
694,31	2557,91
694,50	2553,82
694,69	2557,91
694,87	2558,42
695,06	2476,51
695,25	2482,14
695,43	2549,72
695,62	2461,15
695,81	2431,45
695,99	2533,85
696,18	2417,12
696,37	2453,47
696,55	2451,42
696,74	2445,79
696,93	2537,95
697,11	2446,30
697,30	2361,82
697,49	2380,76
697,67	2374,11
697,86	2351,58
698,05	2366,43
698,23	2265,05
698,42	2342,88
698,61	2312,67
698,79	2294,75
698,98	2251,74
699,17	2279,90
699,35	2231,77
699,54	2224,61
699,72	2243,04
699,91	2295,77
700,10	2222,56
700,28	2263,52
700,47	2183,65
700,66	2074,59
700,84	2234,85
701,03	2174,43
701,21	2212,32
701,40	2139,10
701,59	2097,63
701,77	2123,74
701,96	2177,50
702,15	2182,62
702,33	2012,13
702,52	2002,40
702,70	2039,78
702,89	2095,07
703,08	2026,98
703,26	2052,58
703,45	1954,27
703,63	2081,25
703,82	1980,90
704,01	1994,21
704,19	2022,37
704,38	1975,78
704,56	1982,43
704,75	1961,44
704,94	1930,72
705,12	1912,80
705,31	1979,87
705,49	1843,68
705,68	1848,29
705,86	1936,87
706,05	1834,98
706,24	1842,66
706,42	1911,27
706,61	1764,33
706,79	1827,81
706,98	1769,44
707,17	1827,81
707,35	1791,46
707,54	1679,33
707,72	1763,81
707,91	1733,09
708,09	1712,10
708,28	1712,10
708,46	1708,52
708,65	1773,03
708,84	1660,39
709,02	1693,16
709,21	1734,63
709,39	1710,05
709,58	1698,28
709,76	1545,70
709,95	1665,00
710,13	1575,91
710,32	1627,11
710,50	1630,18
710,69	1635,30
710,88	1612,78
711,06	1553,90
711,25	1589,74
711,43	1598,44
711,62	1581,03
711,80	1501,67
711,99	1466,86
712,17	1493,99
712,36	1563,62
712,54	1487,34
712,73	1541,61
712,91	1584,10
713,10	1613,80
713,28	1503,72
713,47	1453,03
713,65	1473,51
713,84	1433,07
714,02	1496,55
714,21	1495,53
714,39	1504,23
714,58	1422,83
714,76	1442,28
714,95	1487,85
715,13	1397,74
715,32	1420,27
715,50	1376,24
715,69	1502,19
715,87	1404,39
716,06	1407,47
716,24	1346,54
716,43	1387,50
716,61	1400,81
716,80	1406,95
716,98	1267,69
717,17	1446,89
717,35	1418,22
717,54	1321,45
717,72	1267,18
717,91	1304,04
718,09	1225,20
718,28	1222,13
718,46	1332,20
718,65	1259,50
718,83	1232,37
719,01	1268,20
719,20	1142,25
719,38	1277,42
719,57	1273,32
719,75	1191,41
719,94	1198,06
720,12	1248,75
720,31	1194,48
720,49	1136,11
720,68	1223,66
720,86	1160,17
721,04	1165,81
721,23	1163,25
721,41	1089,01
721,60	1196,53
721,78	1139,69
721,97	1091,57
722,15	1156,08
722,34	1160,17
722,52	1167,34
722,70	1068,53
722,89	1032,69
723,07	1064,94
723,26	1107,44
723,44	1056,75
723,63	1104,88
723,81	1021,42
723,99	1081,84
724,18	1058,29
724,36	1049,58
724,55	1137,13
724,73	987,12
724,91	962,03
725,10	1017,84
725,28	958,96
725,47	1083,38
725,65	1008,62
725,83	1010,67
726,02	1040,88
726,20	1032,69
726,39	882,67
726,57	1017,33
726,75	879,60
726,94	971,25
727,12	1096,69
727,31	970,74
727,49	964,59
727,67	1008,62
727,86	918,51
728,04	898,03
728,23	924,15
728,41	848,88
728,59	904,69
728,78	993,26
728,96	926,19
729,14	908,79
729,33	835,06
729,51	844,79
729,69	893,94
729,88	859,63
730,06	888,82
730,25	895,47
730,43	934,39
730,61	899,57
730,80	906,74
730,98	859,12
731,16	865,27
731,35	854,51
731,53	783,86
731,71	826,36
731,90	828,92
732,08	847,35
732,26	755,19
732,45	743,92
732,63	873,46
732,81	790,52
733,00	786,42
733,18	802,80
733,36	824,31
733,55	880,11
733,73	812,02
733,91	710,65
734,10	737,78
734,28	759,80
734,46	737,27
734,65	778,74
734,83	775,67
735,01	755,70
735,20	790,52
735,38	648,69
735,56	741,88
735,75	735,22
735,93	668,15
736,11	809,46
736,30	736,24
736,48	676,34
736,66	724,98
736,84	780,79
737,03	739,32
737,21	675,83
737,39	611,32
737,58	746,48
737,76	590,84
737,94	655,35
738,12	657,91
738,31	708,60
738,49	654,84
738,67	629,24
738,86	692,73
739,04	635,89
739,22	698,87
739,40	674,29
739,59	572,41
739,77	595,96
739,95	644,09
740,14	595,45
740,32	636,92
740,50	680,44
740,68	592,37
740,87	629,75
741,05	695,29
741,23	657,91
741,41	571,90
741,60	625,14
741,78	615,93
741,96	626,17
742,14	545,27
742,33	541,69
742,51	590,84
742,69	612,34
742,87	574,46
743,06	583,16
743,24	491,00
743,42	643,06
743,60	568,31
743,79	567,80
743,97	608,25
744,15	526,33
744,33	563,19
744,52	473,59
744,70	549,88
744,88	544,25
745,06	541,69
745,24	523,26
745,43	565,75
745,61	504,82
745,79	492,02
745,97	596,98
746,16	573,43
746,34	561,14
746,52	556,54
746,70	488,44
746,88	583,16
747,07	497,66
747,25	410,11
747,43	533,50
747,61	516,09
747,79	527,86
747,98	523,77
748,16	523,77
748,34	489,98
748,52	388,60
748,70	436,22
748,89	492,54
749,07	436,22
749,25	524,28
749,43	470,01
749,61	506,36
749,79	601,59
749,98	521,21
750,16	393,72
750,34	486,39
750,52	484,34
750,70	470,52
750,88	470,01
751,07	535,03
751,25	396,28
751,43	415,23
751,61	367,61
751,79	446,46
751,97	472,57
752,16	444,41
752,34	397,82
752,52	437,75
752,70	470,01
752,88	387,58
753,06	515,58
753,25	385,02
753,43	432,63
753,61	420,86
753,79	309,24
753,97	421,88
754,15	383,99
754,33	437,24
754,52	463,35
754,70	358,91
754,88	378,87
755,06	451,58
755,24	434,68
755,42	446,46
755,60	423,93
755,78	462,33
755,97	455,16
756,15	394,75
756,33	397,82
756,51	404,99
756,69	357,37
756,87	389,63
757,05	358,39
757,23	330,23
757,41	398,84
757,60	340,47
757,78	411,13
757,96	364,03
758,14	339,96
758,32	323,58
758,50	390,14
758,68	425,98
758,86	449,53
759,04	396,28
759,22	404,47
759,41	326,65
759,59	369,66
759,77	438,27
759,95	310,78
760,13	393,72
760,31	429,05
760,49	419,83
760,67	361,47
760,85	254,46
761,03	410,11
761,21	292,86
761,39	384,51
761,57	389,11
761,76	417,79
761,94	452,09
762,12	433,66
762,30	392,19
762,48	404,99
762,66	335,87
762,84	374,27
763,02	368,63
763,20	390,65
763,38	358,39
763,56	343,55
763,74	355,32
763,92	336,89
764,10	432,63
764,28	333,31
764,46	353,79
764,64	432,12
764,82	407,55
765,00	337,91
765,19	327,16
765,37	307,20
765,55	326,65
765,73	284,16
765,91	344,57
766,09	336,89
766,27	344,06
766,45	288,25
766,63	313,34
766,81	321,53
766,99	315,39
767,17	240,12
767,35	312,32
767,53	351,23
767,71	384,51
767,89	304,12
768,07	299,52
768,25	321,53
768,43	332,79
768,61	332,79
768,79	330,23
768,97	357,37
769,15	281,08
769,33	320,00
769,51	274,94
769,69	283,13
769,87	316,92
770,05	280,06
770,23	400,89
770,41	327,67
770,59	269,82
770,77	290,81
770,95	293,88
771,13	295,93
771,31	216,57
771,49	283,64
771,67	273,92
771,85	378,36
772,03	318,46
772,21	270,33
772,38	300,54
772,56	261,63
772,74	289,79
772,92	228,86
773,10	316,92
773,28	357,37
773,46	237,56
773,64	268,80
773,82	276,99
774,00	271,87
774,18	296,96
774,36	236,54
774,54	244,73
774,72	252,92
774,90	192,00
775,08	233,47
775,26	381,95
775,44	280,57
775,62	218,62
775,80	224,25
775,97	293,88
776,15	267,26
776,33	317,44
776,51	218,62
776,69	297,98
776,87	292,86
777,05	296,96
777,23	337,40
777,41	186,88
777,59	132,61
777,77	223,74
777,95	279,55
778,13	208,89
778,30	271,36
778,48	302,08
778,66	330,23
778,84	231,93
779,02	209,40
779,20	227,32
779,38	351,74
779,56	281,08
779,74	199,68
779,92	193,02
780,09	220,16
780,27	264,70
780,45	149,50
780,63	249,34
780,81	243,20
780,99	233,47
781,17	300,54
781,35	229,37
781,52	195,58
781,70	231,93
781,88	211,45
782,06	334,84
782,24	296,44
782,42	250,88
782,60	194,05
782,78	182,78
782,95	293,37
783,13	234,49
783,31	186,88
783,49	222,72
783,67	197,12
783,85	282,62
784,03	213,50
784,20	160,77
784,38	223,23
784,56	143,87
784,74	196,60
784,92	144,89
785,10	245,76
785,28	250,88
785,45	257,53
785,63	240,12
785,81	162,30
785,99	200,70
786,17	262,65
786,35	215,55
786,52	179,20
786,70	227,84
786,88	196,61
787,06	142,85
787,24	222,72
787,41	214,01
787,59	207,87
787,77	183,81
787,95	142,33
788,13	217,08
788,31	162,81
788,48	208,38
788,66	157,69
788,84	146,94
789,02	250,88
789,20	159,23
789,37	163,84
789,55	303,10
789,73	170,49
789,91	238,08
790,09	221,18
790,26	124,93
790,44	146,43
790,62	142,85
790,80	254,97
790,98	263,16
791,15	220,67
791,33	248,32
791,51	212,99
791,69	163,84
791,86	260,60
792,04	177,66
792,22	152,57
792,40	137,73
792,58	157,18
792,75	194,56
792,93	215,55
793,11	129,02
793,29	142,33
793,46	203,77
793,64	237,05
793,82	181,76
794,00	136,70
794,17	274,94
794,35	131,07
794,53	193,02
794,71	136,70
794,88	135,68
795,06	124,93
795,24	216,06
795,42	214,52
795,59	116,73
795,77	182,78
795,95	121,85
796,13	142,33
796,30	131,07
796,48	224,25
796,66	222,20
796,83	235,00
797,01	199,68
797,19	113,66
797,37	245,76
797,54	169,98
797,72	120,83
797,90	229,88
798,08	43,01
798,25	41,47
798,43	209,40
798,61	154,62
798,78	194,56
798,96	177,66
799,14	99,33
799,31	181,25
799,49	143,87
799,67	166,91
799,85	242,68
800,02	201,21
800,20	92,67
800,38	73,73
800,55	166,91
800,73	151,55
800,91	166,91
801,08	146,94
801,26	190,97
801,44	175,10
801,61	196,61
801,79	143,87
801,97	119,29
802,15	118,27
802,32	112,13
802,50	144,38
802,68	162,30
802,85	193,53
803,03	229,88
803,21	184,32
803,38	200,70
803,56	167,93
803,74	73,73
803,91	159,74
804,09	150,53
804,26	192,51
804,44	178,17
804,62	156,67
804,79	204,80
804,97	141,31
805,15	140,29
805,32	128,00
805,50	213,50
805,68	129,53
805,85	105,47
806,03	122,88
806,21	157,18
806,38	68,09
806,56	165,37
806,73	176,13
806,91	173,05
807,09	178,17
807,26	148,48
807,44	162,30
807,62	185,85
807,79	186,37
807,97	140,29
808,14	154,11
808,32	201,72
808,50	111,10
808,67	74,75
808,85	179,71
809,02	222,20
809,20	124,41
809,38	163,84
809,55	66,56
809,73	125,95
809,90	159,74
810,08	222,20
810,26	180,73
810,43	149,50
810,61	129,02
810,78	151,04
810,96	123,39
811,14	90,62
811,31	68,61
811,49	33,79
811,66	121,34
811,84	72,70
812,02	116,73
812,19	202,75
812,37	152,06
812,54	182,78
812,72	134,14
812,89	236,03
813,07	144,89
813,25	196,61
813,42	203,26
813,60	200,19
813,77	292,35
813,95	156,16
814,12	40,45
814,30	114,69
814,47	128,00
814,65	129,02
814,83	134,14
815,00	202,75
815,18	160,25
815,35	136,19
815,53	236,03
815,70	116,22
815,88	172,54
816,05	133,63
816,23	96,25
816,40	174,59
816,58	107,01
816,75	79,87
816,93	178,69
817,10	174,08
817,28	113,15
817,46	81,92
817,63	141,82
817,81	135,68
817,98	3,58
818,16	91,65
818,33	90,11
818,51	114,17
818,68	147,45
818,86	259,58
819,03	185,85
819,21	113,66
819,38	100,86
819,56	65,02
819,73	143,87
819,91	141,31
820,08	160,25
820,26	89,60
820,43	229,88
820,61	107,01
820,78	84,48
820,96	93,18
821,13	137,73
821,31	145,41
821,48	41,98
821,66	130,05
821,83	136,19
822,00	72,70
822,18	80,89
822,35	142,33
822,53	152,06
822,70	110,08
822,88	206,33
823,05	154,62
823,23	134,14
823,40	99,84
823,58	135,17
823,75	68,61
823,93	81,41
824,10	19,97
824,28	79,36
824,45	107,52
824,62	66,56
824,80	131,07
824,97	152,57
825,15	126,97
825,32	116,73
825,50	148,99
825,67	129,53
825,85	196,60
826,02	68,61
826,19	124,93
826,37	161,28
826,54	140,29
826,72	101,89
826,89	85,50
827,07	63,49
827,24	160,77
827,41	146,94
827,59	144,38
827,76	91,13
827,94	105,47
828,11	227,84
828,28	113,66
828,46	157,18
828,63	105,98
828,81	117,25
828,98	127,49
829,15	226,81
829,33	87,04
829,50	91,65
829,68	92,16
829,85	113,15
830,02	122,37
830,20	131,58
830,37	140,29
830,55	183,29
830,72	184,32
830,89	93,69
831,07	76,29
831,24	181,76
831,42	137,73
831,59	69,63
831,76	54,78
831,94	113,66
832,11	156,16
832,28	152,06
832,46	107,52
832,63	62,98
832,81	122,37
832,98	111,61
833,15	116,73
833,33	44,54
833,50	167,42
833,67	126,46
833,85	141,82
834,02	124,41
834,19	109,05
834,37	148,48
834,54	154,62
834,71	72,70
834,89	153,09
835,06	83,45
835,23	106,49
835,41	105,47
835,58	147,45
835,75	92,16
835,93	53,25
836,10	101,37
836,27	133,12
836,45	237,56
836,62	129,02
836,79	163,84
836,97	196,09
837,14	197,63
837,31	120,83
837,49	139,26
837,66	124,93
837,83	155,13
838,01	94,72
838,18	135,68
838,35	92,67
838,53	169,98
838,70	98,30
838,87	91,13
839,04	87,55
839,22	253,44
839,39	82,94
839,56	117,76
839,74	128,00
839,91	84,99
840,08	162,81
840,26	116,73
840,43	70,14
840,60	118,27
840,77	102,40
840,95	167,93
841,12	118,78
841,29	154,62
841,46	146,43
841,64	131,58
841,81	102,40
841,98	59,90
842,16	90,62
842,33	133,63
842,50	144,89
842,67	78,85
842,85	107,01
843,02	160,25
843,19	81,92
843,36	96,77
843,54	119,81
843,71	184,83
843,88	93,18
844,05	64,00
844,23	109,05
844,40	96,25
844,57	120,83
844,74	134,65
844,92	141,82
845,09	81,92
845,26	151,04
845,43	31,74
845,61	109,05
845,78	202,75
845,95	117,76
846,12	218,62
846,29	139,77
846,47	156,67
846,64	98,30
846,81	25,60
846,98	-5,63
847,16	118,78
847,33	143,36
847,50	48,13
847,67	59,90
847,84	143,36
848,02	95,23
848,19	104,96
848,36	85,50
848,53	87,55
848,70	108,03
848,88	87,55
849,05	160,77
849,22	106,49
849,39	73,21
849,56	4,61
849,74	90,62
849,91	129,53
850,08	115,71
850,25	117,25
850,42	150,53
850,60	129,02
850,77	140,29
850,94	147,97
851,11	117,76
851,28	126,97
851,45	137,73
851,63	146,43
851,80	167,93
851,97	91,13
852,14	168,96
852,31	154,62
852,48	68,61
852,66	94,21
852,83	145,92
853,00	89,09
853,17	114,69
853,34	113,15
853,51	143,36
853,68	126,97
853,86	115,71
854,03	122,37
854,20	83,97
854,37	75,77
854,54	192,00
854,71	174,08
854,88	107,52
855,06	148,48
855,23	144,38
855,40	105,98
855,57	39,94
855,74	152,57
855,91	157,69
856,08	98,81
856,25	152,06
856,43	50,69
856,60	103,93
856,77	177,66
856,94	91,65
857,11	91,13
857,28	132,09
857,45	162,81
857,62	46,59
857,79	121,34
857,97	128,00
858,14	90,11
858,31	185,34
858,48	122,88
858,65	117,25
858,82	56,32
858,99	108,03
859,16	24,06
859,33	3,58
859,50	66,56
859,67	47,10
859,85	79,87
860,02	29,18
860,19	101,89
860,36	71,17
860,53	172,03
860,70	116,22
860,87	136,70
861,04	180,22
861,21	158,21
861,38	162,81
861,55	106,49
861,72	131,58
861,89	108,54
862,06	110,59
862,23	104,96
862,41	55,30
862,58	137,21
862,75	107,01
862,92	141,82
863,09	48,64
863,26	85,50
863,43	139,77
863,60	146,94
863,77	104,96
863,94	67,58
864,11	147,97
864,28	62,46
864,45	8,70
864,62	206,33
864,79	134,14
864,96	100,86
865,13	164,86
865,30	124,41
865,47	166,40
865,64	-11,78
865,81	101,89
865,98	212,99
866,15	91,13
866,32	150,53
866,49	143,87
866,66	152,06
866,83	94,72
867,00	95,74
867,17	129,53
867,34	16,38
867,51	232,96
867,68	89,09
867,85	194,05
868,02	168,45
868,19	84,48
868,36	141,31
868,53	129,02
868,70	73,73
868,87	85,50
869,04	200,70
869,21	132,61
869,38	112,13
869,55	83,45
869,72	150,01
869,89	40,96
870,06	136,19
870,23	82,94
870,40	102,91
870,57	99,33
870,74	77,31
870,91	146,94
871,08	65,54
871,25	152,57
871,42	144,89
871,59	141,82
871,76	88,06
871,93	27,65
872,10	74,24
872,27	207,87
872,44	36,86
872,60	110,59
872,77	145,92
872,94	96,77
873,11	135,68
873,28	143,87
873,45	125,44
873,62	147,97
873,79	103,42
873,96	38,40
874,13	150,53
874,30	27,65
874,47	138,75
874,64	174,59
874,81	78,33
874,97	79,87
875,14	137,21
875,31	54,27
875,48	98,81
875,65	137,73
875,82	93,69
875,99	130,05
876,16	158,21
876,33	211,45
876,50	126,97
876,67	113,66
876,83	111,61
877,00	126,46
877,17	177,66
877,34	35,33
877,51	133,12
877,68	113,15
877,85	-15,87
878,02	87,55
878,19	105,47
878,35	101,89
878,52	111,61
878,69	90,62
878,86	57,86
879,03	83,97
879,20	147,97
879,37	121,85
879,54	64,00
879,70	148,48
879,87	112,64
880,04	139,77
880,21	89,60
880,38	98,81
880,55	98,81
880,72	139,77
880,89	55,81
881,05	167,93
881,22	120,32
881,39	102,91
881,56	133,63
881,73	53,25
881,90	118,78
882,06	45,57
882,23	50,69
882,40	61,44
882,57	119,81
882,74	123,39
882,91	127,49
883,07	57,86
883,24	155,13
883,41	81,92
883,58	60,93
883,75	101,37
883,92	60,93
884,08	115,71
884,25	71,68
884,42	89,09
884,59	117,25
884,76	95,74
884,92	40,96
885,09	135,17
885,26	99,84
885,43	122,37
885,60	123,90
885,76	119,81
885,93	71,17
886,10	118,78
886,27	141,82
886,44	142,85
886,60	217,08
886,77	111,10
886,94	37,89
887,11	75,77
887,28	100,86
887,44	130,05
887,61	99,33
887,78	109,57
887,95	68,61
888,12	122,88
888,28	119,29
888,45	110,59
888,62	105,47
888,79	74,24
888,95	70,14
889,12	65,53
889,29	161,79
889,46	70,14
889,62	126,97
889,79	147,97
889,96	126,46
890,13	111,61
890,29	137,73
890,46	154,11
890,63	85,50
890,80	123,90
890,96	116,73
891,13	97,79
891,30	80,89
891,47	45,57
891,63	249,34
891,80	155,13
891,97	122,88
892,14	137,73
892,30	89,09
892,47	216,57
892,64	74,75
892,80	81,92
892,97	33,79
893,14	86,53
893,31	129,02
893,47	83,45
893,64	144,89
893,81	140,29
893,97	135,68
894,14	139,77
>>>>>End Processed Spectral Data<<<<<
