SpectraSuite Datei
++++++++++++++++++++++++++++++++++++
Datum: Mon Dec 11 14:43:34 CET 2017
Benutzer: Praktikum-Pc1
Dark-Spektrum vorhanden: Ja
Referenz-Spektrum vorhanden: Nein
Zahl der probierten Teilspektren: 1
Spektrometer: USB4H10187
Integrationszeit (usec): 150000 (USB4H10187)
Spektren Durchschnitt berechnet: 4 (USB4H10187)
Boxcar Glättung: 0 (USB4H10187)
Dunkelstromkorrektur: Nein (USB4H10187)
Puls/Lampe aktiviert: Nein (USB4H10187)
Correct for Detector Non-linearity: Nein (USB4H10187)
Streulichtkorrektur: Nein (USB4H10187)
Anzahl Pixel in verarbeitetem Spektrum: 3648
>>>>>Begin Processed Spectral Data<<<<<
176,80	-19,97
177,02	-19,97
177,24	-19,97
177,46	48,64
177,68	1,54
177,91	31,74
178,13	11,78
178,35	18,94
178,57	-4,10
178,79	38,91
179,02	34,82
179,24	36,86
179,46	40,96
179,68	6,14
179,90	17,41
180,12	71,17
180,35	28,67
180,57	74,24
180,79	62,98
181,01	93,69
181,23	53,25
181,46	36,86
181,68	54,27
181,90	58,88
182,12	73,73
182,34	40,96
182,56	48,64
182,79	80,89
183,01	84,48
183,23	41,47
183,45	79,87
183,67	26,62
183,89	65,02
184,12	61,95
184,34	53,76
184,56	60,93
184,78	32,77
185,00	36,86
185,22	26,62
185,45	51,20
185,67	32,77
185,89	45,57
186,11	74,75
186,33	73,21
186,55	38,91
186,77	22,02
187,00	52,22
187,22	51,20
187,44	74,24
187,66	103,93
187,88	76,80
188,10	44,54
188,32	12,29
188,55	55,30
188,77	57,34
188,99	49,66
189,21	87,04
189,43	82,43
189,65	38,91
189,87	94,72
190,10	46,08
190,32	29,70
190,54	23,04
190,76	65,54
190,98	20,99
191,20	57,86
191,42	68,61
191,64	46,59
191,87	51,20
192,09	34,82
192,31	30,21
192,53	8,19
192,75	49,15
192,97	96,77
193,19	53,76
193,41	48,64
193,64	76,29
193,86	80,89
194,08	29,18
194,30	82,94
194,52	91,13
194,74	0,00
194,96	66,05
195,18	40,96
195,40	83,45
195,63	69,63
195,85	74,24
196,07	53,25
196,29	83,45
196,51	75,77
196,73	13,82
196,95	91,65
197,17	33,28
197,39	72,19
197,61	43,01
197,84	38,40
198,06	59,90
198,28	74,75
198,50	62,46
198,72	62,46
198,94	99,33
199,16	84,48
199,38	64,51
199,60	66,56
199,82	68,09
200,04	94,72
200,26	91,65
200,49	13,31
200,71	12,80
200,93	77,82
201,15	73,21
201,37	20,99
201,59	59,90
201,81	8,19
202,03	60,42
202,25	87,04
202,47	31,74
202,69	61,44
202,91	51,71
203,13	56,32
203,35	84,99
203,58	67,07
203,80	36,86
204,02	37,89
204,24	44,03
204,46	83,45
204,68	114,69
204,90	20,48
205,12	56,83
205,34	39,94
205,56	81,41
205,78	65,54
206,00	57,86
206,22	68,61
206,44	93,69
206,66	70,65
206,88	101,37
207,10	52,22
207,32	64,00
207,54	58,88
207,76	89,09
207,99	58,37
208,21	57,34
208,43	59,90
208,65	79,87
208,87	62,46
209,09	80,89
209,31	49,66
209,53	65,02
209,75	78,33
209,97	49,15
210,19	40,96
210,41	101,37
210,63	84,99
210,85	46,08
211,07	45,57
211,29	76,80
211,51	70,14
211,73	75,77
211,95	82,94
212,17	36,35
212,39	76,80
212,61	48,64
212,83	59,90
213,05	70,65
213,27	75,77
213,49	68,09
213,71	139,77
213,93	31,23
214,15	97,28
214,37	36,35
214,59	58,37
214,81	23,04
215,03	82,94
215,25	48,64
215,47	80,89
215,69	84,99
215,91	96,77
216,13	54,27
216,35	65,02
216,57	109,57
216,79	75,26
217,01	58,88
217,23	53,25
217,45	98,30
217,67	49,66
217,89	62,46
218,11	102,40
218,33	71,17
218,55	91,13
218,77	82,43
218,99	64,51
219,21	14,85
219,43	32,77
219,65	57,86
219,87	73,73
220,09	73,73
220,31	99,84
220,53	56,83
220,75	154,62
220,97	89,60
221,19	53,76
221,41	40,96
221,63	87,55
221,85	44,54
222,06	48,13
222,28	80,89
222,50	58,37
222,72	75,77
222,94	68,09
223,16	54,78
223,38	81,41
223,60	34,30
223,82	92,16
224,04	53,25
224,26	72,70
224,48	141,31
224,70	53,25
224,92	81,41
225,14	74,24
225,36	62,46
225,58	89,09
225,80	83,45
226,02	70,65
226,24	78,33
226,45	42,50
226,67	14,85
226,89	5,63
227,11	96,77
227,33	68,09
227,55	74,24
227,77	120,32
227,99	54,27
228,21	49,15
228,43	140,80
228,65	76,29
228,87	76,80
229,09	31,74
229,31	35,84
229,52	79,87
229,74	39,42
229,96	83,45
230,18	93,69
230,40	38,91
230,62	98,81
230,84	77,82
231,06	78,85
231,28	39,94
231,50	66,05
231,72	97,79
231,94	101,37
232,15	54,78
232,37	72,19
232,59	71,17
232,81	104,96
233,03	71,68
233,25	67,07
233,47	49,15
233,69	58,37
233,91	77,31
234,13	60,42
234,34	118,78
234,56	65,54
234,78	95,23
235,00	107,01
235,22	25,60
235,44	86,01
235,66	44,54
235,88	73,21
236,10	107,01
236,31	65,53
236,53	117,76
236,75	89,60
236,97	61,95
237,19	79,36
237,41	44,54
237,63	90,11
237,85	113,15
238,07	52,22
238,28	25,60
238,50	111,10
238,72	66,56
238,94	36,35
239,16	55,30
239,38	92,67
239,60	60,42
239,81	90,11
240,03	89,09
240,25	62,46
240,47	86,01
240,69	18,43
240,91	42,50
241,13	57,34
241,34	90,11
241,56	51,71
241,78	60,93
242,00	83,97
242,22	95,23
242,44	26,62
242,66	89,09
242,87	114,69
243,09	41,98
243,31	132,09
243,53	134,14
243,75	127,49
243,97	44,03
244,19	67,07
244,40	87,04
244,62	55,81
244,84	83,45
245,06	88,57
245,28	48,64
245,50	100,86
245,71	67,58
245,93	51,20
246,15	55,30
246,37	94,72
246,59	88,06
246,81	83,97
247,02	76,29
247,24	60,93
247,46	105,98
247,68	113,15
247,90	96,77
248,11	76,29
248,33	66,56
248,55	92,16
248,77	32,26
248,99	58,88
249,21	4,10
249,42	71,68
249,64	128,51
249,86	49,66
250,08	68,09
250,30	99,33
250,51	82,94
250,73	90,62
250,95	94,72
251,17	87,04
251,39	48,13
251,60	86,01
251,82	67,07
252,04	123,90
252,26	28,16
252,48	73,73
252,69	79,87
252,91	48,13
253,13	76,80
253,35	83,97
253,57	75,26
253,78	53,25
254,00	109,57
254,22	69,12
254,44	68,61
254,65	95,74
254,87	52,74
255,09	101,37
255,31	41,47
255,53	100,86
255,74	86,53
255,96	84,99
256,18	93,69
256,40	88,06
256,61	55,30
256,83	86,01
257,05	43,52
257,27	98,30
257,48	55,30
257,70	70,65
257,92	81,92
258,14	98,81
258,36	71,68
258,57	39,42
258,79	71,68
259,01	31,23
259,23	84,48
259,44	67,07
259,66	121,85
259,88	59,39
260,10	77,82
260,31	84,99
260,53	86,01
260,75	126,46
260,97	88,57
261,18	85,50
261,40	17,41
261,62	81,92
261,84	43,01
262,05	104,96
262,27	55,30
262,49	51,20
262,71	77,82
262,92	87,55
263,14	102,40
263,36	82,94
263,57	47,62
263,79	76,80
264,01	98,30
264,23	70,65
264,44	55,30
264,66	63,49
264,88	120,83
265,10	120,32
265,31	71,17
265,53	103,93
265,75	119,81
265,96	43,01
266,18	75,26
266,40	58,88
266,62	35,84
266,83	61,44
267,05	74,24
267,27	44,54
267,48	79,87
267,70	87,04
267,92	49,15
268,14	45,57
268,35	56,83
268,57	88,06
268,79	60,93
269,00	71,17
269,22	79,36
269,44	71,17
269,65	69,12
269,87	82,43
270,09	67,58
270,31	117,25
270,52	26,11
270,74	90,62
270,96	79,36
271,17	11,78
271,39	68,61
271,61	66,56
271,82	75,77
272,04	58,37
272,26	63,49
272,47	82,43
272,69	68,09
272,91	91,13
273,12	96,25
273,34	58,88
273,56	39,42
273,77	99,33
273,99	92,67
274,21	105,47
274,42	109,05
274,64	26,11
274,86	114,69
275,08	65,02
275,29	72,70
275,51	88,57
275,72	151,55
275,94	108,54
276,16	86,53
276,37	75,77
276,59	101,37
276,81	43,01
277,02	110,08
277,24	140,80
277,46	81,92
277,67	80,89
277,89	93,69
278,11	52,22
278,32	109,57
278,54	39,94
278,76	95,23
278,97	95,74
279,19	86,53
279,41	112,13
279,62	69,12
279,84	129,53
280,05	27,65
280,27	134,65
280,49	93,18
280,70	87,04
280,92	64,00
281,14	83,97
281,35	115,20
281,57	76,29
281,79	97,28
282,00	95,74
282,22	102,40
282,43	117,76
282,65	104,96
282,87	83,97
283,08	78,85
283,30	86,53
283,52	59,90
283,73	87,04
283,95	87,55
284,16	70,14
284,38	74,75
284,60	119,81
284,81	46,59
285,03	81,41
285,24	61,44
285,46	121,34
285,68	82,94
285,89	86,01
286,11	76,29
286,32	88,06
286,54	82,43
286,76	69,12
286,97	101,37
287,19	76,29
287,40	70,14
287,62	98,81
287,84	118,27
288,05	112,13
288,27	79,87
288,48	86,53
288,70	78,33
288,92	95,23
289,13	132,09
289,35	97,28
289,56	92,67
289,78	60,93
289,99	89,09
290,21	109,05
290,43	163,33
290,64	75,26
290,86	101,37
291,07	57,34
291,29	40,45
291,51	74,24
291,72	74,75
291,94	96,77
292,15	95,23
292,37	75,77
292,58	74,24
292,80	118,27
293,01	128,51
293,23	39,94
293,45	133,12
293,66	74,24
293,88	79,36
294,09	51,71
294,31	84,48
294,52	103,42
294,74	96,77
294,96	130,56
295,17	66,56
295,39	91,65
295,60	77,31
295,82	104,96
296,03	37,89
296,25	100,86
296,46	103,42
296,68	87,55
296,89	64,00
297,11	78,85
297,32	108,03
297,54	99,84
297,76	130,56
297,97	119,81
298,19	134,65
298,40	69,63
298,62	60,93
298,83	139,26
299,05	77,82
299,26	77,31
299,48	87,55
299,69	90,11
299,91	61,44
300,12	93,69
300,34	88,57
300,55	80,38
300,77	122,37
300,98	104,45
301,20	127,49
301,41	91,65
301,63	115,20
301,84	77,31
302,06	130,56
302,28	80,38
302,49	78,85
302,71	106,49
302,92	33,28
303,14	86,53
303,35	122,88
303,57	125,44
303,78	111,10
304,00	129,02
304,21	105,98
304,43	120,83
304,64	130,05
304,86	136,70
305,07	94,21
305,29	82,43
305,50	115,20
305,71	111,10
305,93	153,60
306,14	129,02
306,36	103,93
306,57	110,08
306,79	79,36
307,00	126,97
307,22	125,44
307,43	183,29
307,65	187,39
307,86	173,05
308,08	206,84
308,29	210,43
308,51	154,11
308,72	206,33
308,94	195,07
309,15	209,92
309,37	189,95
309,58	183,81
309,80	220,16
310,01	284,16
310,22	310,78
310,44	304,12
310,65	331,77
310,87	295,42
311,08	324,09
311,30	360,95
311,51	385,53
311,73	361,98
311,94	434,68
312,16	408,06
312,37	441,85
312,58	508,92
312,80	520,70
313,01	557,56
313,23	517,11
313,44	615,41
313,66	622,58
313,87	646,13
314,09	671,22
314,30	646,65
314,51	696,31
314,73	758,77
314,94	705,01
315,16	771,06
315,37	790,00
315,59	806,39
315,80	872,43
316,01	828,92
316,23	920,56
316,44	999,41
316,66	1033,71
316,87	1123,31
317,09	1172,97
317,30	1233,90
317,51	1214,45
317,73	1211,89
317,94	1326,06
318,16	1345,52
318,37	1419,75
318,58	1426,41
318,80	1476,07
319,01	1606,63
319,23	1639,40
319,44	1623,02
319,66	1597,42
319,87	1710,05
320,08	1763,81
320,30	1845,73
320,51	1999,84
320,73	2007,01
320,94	2094,56
321,15	2073,06
321,37	2162,65
321,58	2089,95
321,80	2058,72
322,01	2011,11
322,22	2061,28
322,44	2032,10
322,65	1990,63
322,86	2093,02
323,08	2142,69
323,29	2251,23
323,51	2354,14
323,72	2542,55
323,93	2625,50
324,15	2706,39
324,36	2840,02
324,58	2840,53
324,79	2833,36
325,00	2821,59
325,22	2935,25
325,43	3061,20
325,64	3284,43
325,86	3552,71
326,07	3773,38
326,28	3959,75
326,50	3971,52
326,71	4082,63
326,93	4146,62
327,14	4022,21
327,35	3976,13
327,57	3958,21
327,78	3850,69
327,99	3787,72
328,21	3732,42
328,42	3988,42
328,63	4112,83
328,85	4319,17
329,06	4442,56
329,27	4671,42
329,49	4771,26
329,70	4892,60
329,91	5013,94
330,13	4933,56
330,34	4729,78
330,56	4609,47
330,77	4517,82
330,98	4501,95
331,20	4513,21
331,41	4484,03
331,62	4565,43
331,84	4649,91
332,05	4667,83
332,26	4750,26
332,48	4756,41
332,69	4806,07
332,90	4731,32
333,11	4745,66
333,33	4748,73
333,54	4647,35
333,75	4650,94
333,97	4641,21
334,18	4673,46
334,39	4838,84
334,61	4834,74
334,82	5017,01
335,03	5141,94
335,25	5076,91
335,46	4969,40
335,67	4948,40
335,89	4665,78
336,10	4518,84
336,31	4394,94
336,53	4322,24
336,74	4182,98
336,95	4232,64
337,16	4217,79
337,38	4155,84
337,59	4314,56
337,80	4370,37
338,02	4550,59
338,23	4569,53
338,44	4706,74
338,65	4945,33
338,87	5023,16
339,08	4993,97
339,29	5312,43
339,51	5193,14
339,72	5417,39
339,93	5520,30
340,14	5552,04
340,36	5607,85
340,57	5645,74
340,78	5596,07
341,00	5554,09
341,21	5564,33
341,42	5620,14
341,63	5611,43
341,85	5685,67
342,06	5800,87
342,27	5895,59
342,49	5972,39
342,70	6179,75
342,91	6069,16
343,12	6057,89
343,34	6036,39
343,55	5812,14
343,76	5628,84
343,97	5166,51
344,19	5012,92
344,40	5126,58
344,61	4989,88
344,82	5135,79
345,04	5196,72
345,25	5375,41
345,46	5517,23
345,67	5545,90
345,89	5612,97
346,10	5497,26
346,31	5634,47
346,52	5668,78
346,74	5536,17
346,95	5598,12
347,16	5661,61
347,37	5537,71
347,59	5423,02
347,80	5521,84
348,01	5566,38
348,22	5489,07
348,43	5577,13
348,65	5460,40
348,86	5480,88
349,07	5594,03
349,28	5477,80
349,50	5606,31
349,71	5794,22
349,92	5808,04
350,13	6037,92
350,34	6205,86
350,56	6358,94
350,77	6387,10
350,98	6282,14
351,19	6205,86
351,41	6306,72
351,62	6181,28
351,83	6011,30
352,04	5974,44
352,25	5830,06
352,47	5931,94
352,68	5914,53
352,89	5977,00
353,10	6191,01
353,31	6276,51
353,53	6641,05
353,74	6571,93
353,95	6789,02
354,16	6887,32
354,37	6988,69
354,59	6845,34
354,80	6996,89
355,01	6975,89
355,22	6910,36
355,43	6762,90
355,65	6571,42
355,86	6655,90
356,07	6442,91
356,28	6165,41
356,49	6064,55
356,70	5933,48
356,92	5534,12
357,13	5501,87
357,34	5360,05
357,55	5396,91
357,76	5138,87
357,98	5036,98
358,19	4837,81
358,40	4899,77
358,61	4962,23
358,82	4927,92
359,03	5327,28
359,25	5726,12
359,46	6303,65
359,67	6303,65
359,88	6536,09
360,09	6534,56
360,30	6413,21
360,51	6387,61
360,73	6223,27
360,94	5969,83
361,15	5947,81
361,36	5757,35
361,57	5871,01
361,78	5804,97
362,00	5927,85
362,21	6186,91
362,42	6414,24
362,63	6434,72
362,84	6678,43
363,05	6558,62
363,26	6664,09
363,48	6603,16
363,69	6601,63
363,90	6670,75
364,11	6697,88
364,32	6747,03
364,53	6748,57
364,74	6929,81
364,95	6821,78
365,17	7110,04
365,38	7356,30
365,59	7569,29
365,80	7916,94
366,01	8077,70
366,22	8137,09
366,43	8093,06
366,64	8185,73
366,86	8209,28
367,07	8195,46
367,28	7947,14
367,49	7854,98
367,70	7911,82
367,91	7632,78
368,12	7708,04
368,33	7429,52
368,54	7443,85
368,76	7689,10
368,97	7623,05
369,18	7989,13
369,39	7841,67
369,60	8168,84
369,81	8209,28
370,02	8180,61
370,23	7960,97
370,44	7859,08
370,65	7654,28
370,87	7774,60
371,08	7829,38
371,29	7903,62
371,50	7771,53
371,71	7760,27
371,92	7473,55
372,13	7508,88
372,34	7389,07
372,55	7161,23
372,76	6954,39
372,97	6891,41
373,18	6687,64
373,40	6547,87
373,61	6269,34
373,82	6100,39
374,03	6121,89
374,24	6172,58
374,45	6052,26
374,66	6265,76
374,87	6192,03
375,08	6354,34
375,29	6636,95
375,50	6795,67
375,71	7055,76
375,92	6984,60
376,13	7100,31
376,34	7300,50
376,56	7213,46
376,77	7250,83
376,98	7435,15
377,19	7801,22
377,40	8005,51
377,61	8354,18
377,82	8586,62
378,03	8887,16
378,24	8855,42
378,45	8622,46
378,66	8356,22
378,87	7928,20
379,08	7767,95
379,29	7625,10
379,50	7271,31
379,71	7142,29
379,92	7319,95
380,13	7309,20
380,34	7312,78
380,55	7621,52
380,76	7714,19
380,97	7902,60
381,18	7491,47
381,39	7238,03
381,60	7160,21
381,81	6588,83
382,02	6307,74
382,24	5949,86
382,45	5529,52
382,66	5297,07
382,87	5122,48
383,08	4904,37
383,29	4827,57
383,50	4788,66
383,71	5031,35
383,92	5206,96
384,13	5362,61
384,34	5782,95
384,55	6001,06
384,76	6469,53
384,97	6578,08
385,18	6723,48
385,39	6527,39
385,60	6620,57
385,81	6551,45
386,02	6457,25
386,23	6559,64
386,44	6708,12
386,65	6587,29
386,86	6664,09
387,07	6667,16
387,28	6744,99
387,49	6564,76
387,70	6627,74
387,91	6627,23
388,12	6592,41
388,32	6607,26
388,53	6527,39
388,74	6606,75
388,95	6844,31
389,16	7018,90
389,37	7402,38
389,58	7592,33
389,79	7852,94
390,00	8025,48
390,21	8061,32
390,42	8143,75
390,63	8267,65
390,84	8457,60
391,05	8604,03
391,26	8869,24
391,47	8716,16
391,68	8734,07
391,89	8401,79
392,10	8130,95
392,31	7510,41
392,52	7094,16
392,73	6324,13
392,94	5559,21
393,15	5050,80
393,36	4682,17
393,57	4568,51
393,78	4649,91
393,98	5191,60
394,19	5538,73
394,40	6071,20
394,61	6663,58
394,82	7397,26
395,03	7831,43
395,24	8102,79
395,45	8170,37
395,66	8207,23
395,87	7838,09
396,08	7445,90
396,29	6802,33
396,50	6201,76
396,71	5405,10
396,92	5210,54
397,12	5398,45
397,33	5680,55
397,54	6244,77
397,75	7134,61
397,96	7784,33
398,17	8544,13
398,38	9042,81
398,59	9678,70
398,80	9759,60
399,01	10144,10
399,22	10527,07
399,43	10325,86
399,63	10627,42
399,84	11035,99
400,05	10795,36
400,26	10739,55
400,47	11073,37
400,68	11032,92
400,89	10997,59
401,10	11258,20
401,31	11259,22
401,52	11344,21
401,72	11478,86
401,93	11438,93
402,14	11455,31
402,35	11539,79
402,56	11737,93
402,77	11323,22
402,98	11303,25
403,19	11234,13
403,40	11119,45
403,60	11213,14
403,81	11224,92
404,02	11144,02
404,23	11267,41
404,44	11206,48
404,65	11098,45
404,86	11001,18
405,07	11153,75
405,27	10841,43
405,48	11094,87
405,69	10873,69
405,90	10907,48
406,11	10691,93
406,32	10662,75
406,53	10721,63
406,74	10637,66
406,94	10601,82
407,15	11128,66
407,36	10813,27
407,57	11038,04
407,78	11016,54
407,99	11287,38
408,20	11177,81
408,40	11478,35
408,61	11803,98
408,82	11851,60
409,03	12013,90
409,24	11772,24
409,45	11603,28
409,65	11365,20
409,86	11214,68
410,07	10916,70
410,28	10720,09
410,49	10817,88
410,70	10841,95
410,90	11129,17
411,11	11594,58
411,32	11579,73
411,53	11827,53
411,74	12074,31
411,95	12432,19
412,15	12349,76
412,36	12380,48
412,57	12041,03
412,78	12139,33
412,99	12050,25
413,20	11979,08
413,40	11873,10
413,61	11981,64
413,82	12383,56
414,03	11811,66
414,24	11999,05
414,44	11945,29
414,65	12122,95
414,86	12194,63
415,07	11955,53
415,28	12101,45
415,48	11967,82
415,69	11947,34
415,90	12263,24
416,11	12247,37
416,32	12202,82
416,53	12224,33
416,73	12314,44
416,94	12052,30
417,15	12286,79
417,36	11848,52
417,56	11593,04
417,77	11535,18
417,98	11726,67
418,19	11597,14
418,40	11735,37
418,60	11938,12
418,81	11721,55
419,02	11649,87
419,23	11938,63
419,44	11243,35
419,64	11289,94
419,85	11531,60
420,06	11275,09
420,27	11475,28
420,47	11755,34
420,68	11723,09
420,89	11884,87
421,10	12293,96
421,30	12134,21
421,51	12342,08
421,72	12221,77
421,93	12118,34
422,14	11418,96
422,34	11550,03
422,55	11311,44
422,76	11217,24
422,97	11309,40
423,17	11402,07
423,38	11454,80
423,59	11086,17
423,80	11272,53
424,00	11262,29
424,21	11249,49
424,42	11391,83
424,63	11465,04
424,83	11479,89
425,04	11623,25
425,25	11183,45
425,46	11373,39
425,66	11338,58
425,87	11343,70
426,08	10991,45
426,28	11592,02
426,49	11108,69
426,70	11417,94
426,91	11065,69
427,11	11126,10
427,32	10745,69
427,53	10736,48
427,74	11035,99
427,94	11079,00
428,15	10981,72
428,36	11011,42
428,56	11024,22
428,77	11118,93
428,98	10726,75
429,19	10358,63
429,39	10232,68
429,60	10181,48
429,81	9746,80
430,01	9219,96
430,22	8836,99
430,43	8664,96
430,64	8416,64
430,84	8379,78
431,05	8769,91
431,26	9459,57
431,46	9904,49
431,67	10539,36
431,88	11437,39
432,08	11362,13
432,29	11754,83
432,50	11752,27
432,70	11633,49
432,91	11767,63
433,12	12093,26
433,33	11873,61
433,53	11708,24
433,74	11765,58
433,95	11366,74
434,15	11029,85
434,36	11291,99
434,57	11213,14
434,77	11359,06
434,98	11909,45
435,19	11742,54
435,39	12081,99
435,60	12416,32
435,81	12617,02
436,01	12597,57
436,22	12975,93
436,43	13010,23
436,63	13326,13
436,84	13301,56
437,05	13208,89
437,25	12817,21
437,46	12825,40
437,67	12709,18
437,87	12278,60
438,08	12054,34
438,29	12113,22
438,49	11687,76
438,70	11408,21
438,91	11696,97
439,11	12316,48
439,32	12449,09
439,52	12152,65
439,73	12228,93
439,94	12209,48
440,14	12562,24
440,35	12643,65
440,56	12393,28
440,76	12519,23
440,97	12842,30
441,18	13035,32
441,38	13074,23
441,59	13254,97
441,79	13529,39
442,00	13659,44
442,21	13648,69
442,41	13728,05
442,62	13436,72
442,83	13553,97
443,03	13477,68
443,24	13317,94
443,44	13751,09
443,65	13607,22
443,86	13362,48
444,06	13612,34
444,27	13787,95
444,48	13785,39
444,68	13627,18
444,89	13823,79
445,09	14061,35
445,30	13339,96
445,51	13441,33
445,71	13119,80
445,92	13099,32
446,12	13150,01
446,33	13211,45
446,54	13142,33
446,74	13412,66
446,95	13233,97
447,15	13881,64
447,36	13950,76
447,57	13915,95
447,77	13898,54
447,98	14007,59
448,18	13801,77
448,39	13569,33
448,59	13873,96
448,80	14040,36
449,01	13886,76
449,21	13889,32
449,42	13932,84
449,62	14341,41
449,83	13984,04
450,04	14178,60
450,24	14651,68
450,45	14612,77
450,65	14663,46
450,86	14687,52
451,06	14933,79
451,27	14841,63
451,47	14340,90
451,68	14312,23
451,89	14443,30
452,09	14261,03
452,30	13884,20
452,50	13919,02
452,71	13858,60
452,91	13428,02
453,12	13392,69
453,33	13311,80
453,53	13216,05
453,74	13909,80
453,94	13759,28
454,15	13435,70
454,35	13450,03
454,56	13839,15
454,76	13977,39
454,97	13490,99
455,17	13568,30
455,38	13890,86
455,58	13934,38
455,79	13839,66
456,00	14054,70
456,20	14169,90
456,41	14312,74
456,61	13719,34
456,82	13834,54
457,02	14427,94
457,23	14385,44
457,43	14450,98
457,64	14103,85
457,84	13910,32
458,05	14071,59
458,25	13785,90
458,46	14007,59
458,66	13886,25
458,87	13915,44
459,07	14128,94
459,28	13856,04
459,48	13825,84
459,69	13954,35
459,89	13800,24
460,10	13947,18
460,30	14355,75
460,51	14192,42
460,71	14337,83
460,92	14347,05
461,12	14534,95
461,33	14885,66
461,53	14560,03
461,74	14541,09
461,94	14608,16
462,15	14870,81
462,35	14970,14
462,56	14668,58
462,76	14737,18
462,97	15047,96
463,17	14847,77
463,38	14679,33
463,58	14596,39
463,79	15131,93
463,99	14799,13
464,20	14891,29
464,40	14605,09
464,61	14464,80
464,81	14871,33
465,02	14553,89
465,22	14701,86
465,43	15014,17
465,63	14834,97
465,83	14932,25
466,04	15479,57
466,24	14968,60
466,45	15355,16
466,65	14695,71
466,86	14728,48
467,06	14929,18
467,27	14869,28
467,47	15245,08
467,68	15102,23
467,88	15274,77
468,08	15240,98
468,29	15353,62
468,49	15633,68
468,70	15701,26
468,90	15911,69
469,11	15992,08
469,31	16098,06
469,52	15964,94
469,72	16811,26
469,92	15893,26
470,13	16072,97
470,33	15853,84
470,54	15549,71
470,74	15915,28
470,95	15939,85
471,15	16210,18
471,35	16393,99
471,56	16658,18
471,76	17058,56
471,97	17283,32
472,17	17457,40
472,38	17650,93
472,58	17688,82
472,78	17811,70
472,99	17562,36
473,19	17386,74
473,40	17873,65
473,60	17336,57
473,80	17905,39
474,01	17948,40
474,21	18234,09
474,42	18383,08
474,62	18878,18
474,83	18527,46
475,03	18795,23
475,23	18674,40
475,44	18968,29
475,64	18973,41
475,85	18697,44
476,05	18552,55
476,25	18983,13
476,46	18908,38
476,66	18778,34
476,86	18939,10
477,07	19251,93
477,27	19826,90
477,48	19898,06
477,68	20053,71
477,88	20610,25
478,09	20398,79
478,29	20457,16
478,50	20491,98
478,70	20441,29
478,90	20531,40
479,11	20801,22
479,31	21252,28
479,51	21269,69
479,72	21389,50
479,92	21543,61
480,12	21502,65
480,33	21674,17
480,53	21827,76
480,74	21736,12
480,94	22001,33
481,14	22319,79
481,35	22383,27
481,55	22538,41
481,75	22829,73
481,96	22903,97
482,16	22667,94
482,36	23020,70
482,57	23136,93
482,77	22955,17
482,97	23190,69
483,18	23095,46
483,38	23119,52
483,58	23313,05
483,79	23223,97
483,99	23226,53
484,19	23325,85
484,40	23213,21
484,60	23083,17
484,80	23501,98
485,01	23272,09
485,21	22897,31
485,41	22390,95
485,62	21782,71
485,82	21204,67
486,02	20665,54
486,23	20285,13
486,43	20308,68
486,63	20477,64
486,84	20845,76
487,04	21160,13
487,24	21851,83
487,45	22067,89
487,65	22953,63
487,85	22985,89
488,06	23544,98
488,26	23526,04
488,46	23722,13
488,67	23492,25
488,87	23603,86
489,07	23623,83
489,27	23891,09
489,48	24265,36
489,68	24411,79
489,88	25058,95
490,09	25385,08
490,29	25224,83
490,49	25446,52
490,70	25379,96
490,90	25315,45
491,10	25015,43
491,30	25184,38
491,51	24704,65
491,71	24734,34
491,91	24231,05
492,12	24312,46
492,32	24080,02
492,52	24601,74
492,72	24670,86
492,93	24879,24
493,13	25015,94
493,33	25283,20
493,53	25184,38
493,74	25118,85
493,94	25151,62
494,14	25216,64
494,34	25617,02
494,55	25871,48
494,75	26024,05
494,95	26223,22
495,16	26075,25
495,36	26057,84
495,56	25857,65
495,76	25690,74
495,97	25762,42
496,17	25739,38
496,37	25804,92
496,57	25986,68
496,78	26095,22
496,98	25976,44
497,18	25972,34
497,38	26144,88
497,59	26124,91
497,79	25454,72
497,99	25667,70
498,19	25030,27
498,39	25020,03
498,60	24952,45
498,80	25043,59
499,00	25140,35
499,20	25364,09
499,41	25337,98
499,61	25140,35
499,81	25293,44
500,01	24869,51
500,22	24761,99
500,42	24412,30
500,62	24221,84
500,82	24291,47
501,02	23883,92
501,23	23804,05
501,43	23547,03
501,63	23637,14
501,83	23756,44
502,03	23272,60
502,24	23671,96
502,44	23691,41
502,64	23882,39
502,84	23908,50
503,05	24102,54
503,25	24219,79
503,45	23890,58
503,65	23700,12
503,85	23344,28
504,06	23138,46
504,26	23155,87
504,46	23397,02
504,66	23364,25
504,86	23765,14
505,06	23761,56
505,27	23928,47
505,47	24302,22
505,67	24498,83
505,87	24586,89
506,07	24942,21
506,28	24921,73
506,48	24440,97
506,68	24633,48
506,88	24359,56
507,08	24330,89
507,28	24229,52
507,49	24130,19
507,69	24105,10
507,89	23510,17
508,09	23795,86
508,29	23588,50
508,49	23960,21
508,70	24212,11
508,90	24395,40
509,10	24523,91
509,30	24606,86
509,50	24566,92
509,70	24521,35
509,91	24358,54
510,11	24307,34
510,31	24364,68
510,51	24131,22
510,71	24274,57
510,91	24303,76
511,11	24618,63
511,32	24596,10
511,52	24695,94
511,72	24739,97
511,92	24922,24
512,12	24836,23
512,32	24502,92
512,52	24352,40
512,73	24246,41
512,93	24220,30
513,13	24039,57
513,33	24162,96
513,53	24007,31
513,73	24122,00
513,93	23759,00
514,13	23441,05
514,34	23739,54
514,54	23590,55
514,74	23777,43
514,94	23890,58
515,14	23935,12
515,34	24066,19
515,54	24250,51
515,74	24257,68
515,94	24002,19
516,15	23772,31
516,35	23290,01
516,55	22457,00
516,75	22028,46
516,95	21441,72
517,15	21201,60
517,35	21073,09
517,55	21406,91
517,75	21741,75
517,95	21924,02
518,16	21859,51
518,36	21919,41
518,56	21936,82
518,76	22108,33
518,96	22342,83
519,16	22667,94
519,36	22985,89
519,56	23318,68
519,76	23440,03
519,96	23771,29
520,16	23889,56
520,37	23872,66
520,57	24004,75
520,77	23938,71
520,97	24087,18
521,17	24008,34
521,37	24332,43
521,57	24443,53
521,77	24295,05
521,97	24512,65
522,17	24209,04
522,37	24437,39
522,57	23973,52
522,77	24078,99
522,97	23839,38
523,17	23711,89
523,37	23798,42
523,58	24050,32
523,78	24329,87
523,98	24719,49
524,18	24417,93
524,38	24920,20
524,58	24948,87
524,78	24852,61
524,98	24925,32
525,18	24678,02
525,38	24629,38
525,58	24600,20
525,78	24508,55
525,98	24406,67
526,18	23866,52
526,38	23250,08
526,58	22854,82
526,78	22223,02
526,98	22086,32
527,18	22191,28
527,38	22356,14
527,58	22700,71
527,78	22907,04
527,98	23236,25
528,18	23483,03
528,38	23792,79
528,58	23951,51
528,78	24300,69
528,98	24541,32
529,18	24499,34
529,38	24671,37
529,58	24352,91
529,78	24372,88
529,98	24115,86
530,18	24069,78
530,38	24197,77
530,58	24364,17
530,78	24641,16
530,98	24528,01
531,18	24731,27
531,38	24603,27
531,58	24715,91
531,78	24345,23
531,98	24227,47
532,18	23956,11
532,38	23532,70
532,58	23359,64
532,78	22932,13
532,98	23183,01
533,18	23152,29
533,38	22923,43
533,58	23452,31
533,78	23399,07
533,98	23496,86
534,18	23455,39
534,38	23360,67
534,58	23667,86
534,78	23723,67
534,98	23806,10
535,18	23958,67
535,38	24234,13
535,58	24277,65
535,78	24254,61
535,98	24324,24
536,18	24145,55
536,38	23804,05
536,58	23771,29
536,78	23510,17
536,98	23321,76
537,18	23384,73
537,38	23238,30
537,58	23391,90
537,78	23496,35
537,98	23561,88
538,17	23669,91
538,37	23424,15
538,57	23536,28
538,77	23414,94
538,97	23259,29
539,17	23103,65
539,37	22880,42
539,57	22950,05
539,77	22654,63
539,97	22364,33
540,17	22258,86
540,37	22149,81
540,57	21842,61
540,77	22001,84
540,97	21772,47
541,16	21797,56
541,36	22107,31
541,56	21980,34
541,76	22246,06
541,96	22424,23
542,16	22060,72
542,36	22385,83
542,56	22116,01
542,76	22248,62
542,96	22013,62
543,16	21978,29
543,36	22110,89
543,55	22202,03
543,75	22373,55
543,95	22355,11
544,15	22339,24
544,35	22161,07
544,55	22541,48
544,75	22330,03
544,95	22343,34
545,15	22035,12
545,35	22150,83
545,54	22060,72
545,74	22230,70
545,94	21755,06
546,14	22059,70
546,34	22067,89
546,54	21797,04
546,74	21957,81
546,94	22010,54
547,14	21867,19
547,33	21659,83
547,53	21284,54
547,73	21484,73
547,93	21479,61
548,13	21363,39
548,33	21391,55
548,53	21491,90
548,72	21492,41
548,92	21643,45
549,12	21705,40
549,32	21621,43
549,52	21642,93
549,72	21489,85
549,92	21674,68
550,12	21519,54
550,31	21512,38
550,51	21137,09
550,71	21483,70
550,91	21439,67
551,11	21277,37
551,31	21391,55
551,50	21200,57
551,70	21165,76
551,90	21407,42
552,10	21392,57
552,30	21260,99
552,50	21241,02
552,70	21087,93
552,89	20985,02
553,09	21100,22
553,29	20751,04
553,49	20982,98
553,69	21176,51
553,88	20953,79
554,08	20948,16
554,28	21039,29
554,48	21015,23
554,68	21119,17
554,88	21107,39
555,07	21137,60
555,27	20906,69
555,47	20991,68
555,67	21019,84
555,87	21033,15
556,06	20805,83
556,26	20701,38
556,46	20634,31
556,66	20464,84
556,86	20214,99
557,06	20175,56
557,25	20178,12
557,45	20072,65
557,65	20155,08
557,85	20270,28
558,05	20079,82
558,24	19975,38
558,44	19825,87
558,64	19761,36
558,84	19479,25
559,03	19409,62
559,23	19301,59
559,43	19319,51
559,63	19252,95
559,83	19165,40
560,02	19383,00
560,22	19521,75
560,42	19574,49
560,62	19857,10
560,82	19686,10
561,01	19700,95
561,21	19598,55
561,41	19778,26
561,61	19389,66
561,80	19290,84
562,00	19309,27
562,20	19149,53
562,40	19363,03
562,59	19290,33
562,79	19316,95
562,99	19351,77
563,19	19486,42
563,38	19281,63
563,58	19345,11
563,78	19252,95
563,98	19132,64
564,17	19193,56
564,37	19147,48
564,57	19031,26
564,77	19067,61
564,96	19114,72
565,16	18850,53
565,36	18814,69
565,56	18678,50
565,75	18513,64
565,95	18489,06
566,15	18374,38
566,35	18454,25
566,54	18484,97
566,74	18673,38
566,94	18644,20
567,14	18641,12
567,33	18757,35
567,53	18596,58
567,73	18662,12
567,92	18451,69
568,12	18280,17
568,32	18175,21
568,52	18003,69
568,71	17984,75
568,91	17847,54
569,11	18025,20
569,30	17705,71
569,50	17804,02
569,70	17684,72
569,90	17643,76
570,09	17649,39
570,29	17656,56
570,49	17636,59
570,68	17373,94
570,88	17224,95
571,08	17220,86
571,27	17059,07
571,47	17224,44
571,67	17426,17
571,87	17574,64
572,06	17364,22
572,26	17540,85
572,46	17655,03
572,65	17706,74
572,85	17550,58
573,05	17772,27
573,24	17651,95
573,44	17588,47
573,64	17506,04
573,83	17626,36
574,03	17556,21
574,23	17563,38
574,42	17546,48
574,62	17431,80
574,82	17276,15
575,01	17197,82
575,21	17179,90
575,41	17124,09
575,60	16947,97
575,80	16901,89
576,00	17000,19
576,19	17053,44
576,39	16919,29
576,59	17141,50
576,78	17131,26
576,98	17150,20
577,18	17102,08
577,37	17131,26
577,57	17157,37
577,77	16973,56
577,96	16993,53
578,16	16902,91
578,35	16806,14
578,55	16684,80
578,75	16752,38
578,94	16622,34
579,14	16868,61
579,34	16918,78
579,53	16931,07
579,73	17041,15
579,93	17119,48
580,12	17195,26
580,32	16983,80
580,51	17090,81
580,71	17280,25
580,91	17289,46
581,10	17335,54
581,30	17471,73
581,50	17545,46
581,69	17283,83
581,89	17452,79
582,08	17435,38
582,28	17515,76
582,48	17717,49
582,67	17582,32
582,87	17659,63
583,06	17773,81
583,26	17905,39
583,46	17823,98
583,65	17539,83
583,85	17655,03
584,04	17664,75
584,24	17648,37
584,44	17581,81
584,63	17749,23
584,83	17462,01
585,02	17380,60
585,22	17344,76
585,42	17230,07
585,61	17045,24
585,81	17013,50
586,00	17037,56
586,20	16953,60
586,39	16877,82
586,59	16846,59
586,79	16995,07
586,98	16913,66
587,18	16817,92
587,37	16913,66
587,57	16703,23
587,76	16567,04
587,96	16287,50
588,16	16193,29
588,35	15722,77
588,55	15353,62
588,74	15021,34
588,94	14429,99
589,13	14242,60
589,33	14020,91
589,52	13756,72
589,72	13862,70
589,92	14020,91
590,11	14262,57
590,31	14357,80
590,50	14665,50
590,70	14786,85
590,89	14899,48
591,09	14948,64
591,28	14928,16
591,48	14941,98
591,67	14905,12
591,87	14892,32
592,06	14829,85
592,26	14860,06
592,46	14907,16
592,65	14940,44
592,85	14927,13
593,04	15160,60
593,24	15179,03
593,43	15108,89
593,63	15074,59
593,82	14994,72
594,02	14770,46
594,21	14821,15
594,41	14549,28
594,60	14560,03
594,80	14445,86
594,99	14354,72
595,19	14516,51
595,38	14636,83
595,58	14647,07
595,77	14689,57
595,97	14812,96
596,16	14921,50
596,36	14842,14
596,55	14949,66
596,75	14860,06
596,94	14906,14
597,14	14942,49
597,33	14854,94
597,53	14899,48
597,72	14861,09
597,92	14883,61
598,11	14699,30
598,31	14623,52
598,50	14469,41
598,70	14683,94
598,89	14660,90
599,09	14612,26
599,28	14697,76
599,48	14652,70
599,67	14731,04
599,87	14650,14
600,06	14668,58
600,26	14557,47
600,45	14493,47
600,64	14725,92
600,84	14629,15
601,03	14562,08
601,23	14474,02
601,42	14570,27
601,62	14446,88
601,81	14444,32
602,01	14409,51
602,20	14385,96
602,40	14409,51
602,59	14224,68
602,78	14433,57
602,98	14412,07
603,17	14576,93
603,37	14545,19
603,56	14709,54
603,76	14638,88
603,95	14696,74
604,15	14639,39
604,34	14594,34
604,53	14621,98
604,73	14609,70
604,92	14493,99
605,12	14647,58
605,31	14530,85
605,51	14555,94
605,70	14497,57
605,89	14420,26
606,09	14444,84
606,28	14334,76
606,48	14354,21
606,67	14412,58
606,87	14373,16
607,06	14366,50
607,25	14313,25
607,45	14410,53
607,64	14222,63
607,84	14299,94
608,03	14130,98
608,22	14080,81
608,42	14094,63
608,61	14129,96
608,81	14021,42
609,00	14077,23
609,19	13867,31
609,39	13884,20
609,58	13966,12
609,78	13869,87
609,97	13705,01
610,16	13660,98
610,36	13715,25
610,55	13650,22
610,75	13739,82
610,94	13728,56
611,13	13691,70
611,33	13752,62
611,52	13698,86
611,71	13623,60
611,91	13756,72
612,10	13711,15
612,30	13681,97
612,49	13589,81
612,68	13814,06
612,88	13461,30
613,07	13549,36
613,26	13542,71
613,46	13442,87
613,65	13416,76
613,84	13417,78
614,04	13492,53
614,23	13351,22
614,43	13548,34
614,62	13572,40
614,81	13552,95
615,01	13611,31
615,20	13646,64
615,39	13537,59
615,59	13431,60
615,78	13339,44
615,97	13224,76
616,17	13237,56
616,36	13091,64
616,55	13109,56
616,75	13143,35
616,94	13144,89
617,13	13265,21
617,33	13370,16
617,52	13397,81
617,71	13401,91
617,91	13517,62
618,10	13646,64
618,29	13705,52
618,49	13606,19
618,68	13637,94
618,87	13658,42
619,07	13669,17
619,26	13669,17
619,45	13712,17
619,65	13758,77
619,84	13761,33
620,03	13934,38
620,22	13949,74
620,42	13788,46
620,61	13846,32
620,80	13915,44
621,00	13874,99
621,19	13853,48
621,38	13889,32
621,58	13833,52
621,77	13620,02
621,96	13636,91
622,15	13663,54
622,35	13645,10
622,54	13644,08
622,73	13770,03
622,93	13628,21
623,12	13552,43
623,31	13675,31
623,50	13574,96
623,70	13509,43
623,89	13548,85
624,08	13392,18
624,28	13513,01
624,47	13385,01
624,66	13407,54
624,85	13464,37
625,05	13208,89
625,24	13369,14
625,43	13370,16
625,62	13412,15
625,82	13259,06
626,01	13222,71
626,20	13406,52
626,39	13208,37
626,59	13519,15
626,78	13483,31
626,97	13417,78
627,17	13299,51
627,36	12985,15
627,55	12816,19
627,74	12748,09
627,93	12496,19
628,13	12501,83
628,32	12476,23
628,51	12450,63
628,70	12485,44
628,90	12682,56
629,09	12674,88
629,28	12601,15
629,47	12763,45
629,67	12562,75
629,86	12739,39
630,05	12774,72
630,24	12771,65
630,44	12876,09
630,63	12836,67
630,82	12899,64
631,01	12937,53
631,20	12766,01
631,40	12770,11
631,59	12837,18
631,78	12754,75
631,97	12743,49
632,16	12947,77
632,36	12980,03
632,55	12888,89
632,74	13235,51
632,93	13083,96
633,13	13147,96
633,32	13227,83
633,51	13188,41
633,70	13142,84
633,89	12975,93
634,09	13108,54
634,28	13017,91
634,47	13098,81
634,66	13152,06
634,85	13073,21
635,04	13218,10
635,24	13110,58
635,43	13200,18
635,62	13184,82
635,81	13081,91
636,00	13160,25
636,20	13108,54
636,39	13087,03
636,58	13104,44
636,77	12946,75
636,96	13152,57
637,15	13263,67
637,35	13270,84
637,54	13155,64
637,73	13329,20
637,92	13288,76
638,11	13303,61
638,30	13328,69
638,50	13379,89
638,69	13363,00
638,88	13214,52
639,07	13155,64
639,26	13250,36
639,45	12968,25
639,64	13084,98
639,84	13102,90
640,03	12833,60
640,22	13005,63
640,41	13019,45
640,60	12860,22
640,79	12784,96
640,98	12754,24
641,18	12755,26
641,37	12747,58
641,56	12708,16
641,75	12846,91
641,94	12610,88
642,13	12697,92
642,32	12598,59
642,52	12725,57
642,71	12734,27
642,90	12587,84
643,09	12685,63
643,28	12780,35
643,47	12550,98
643,66	12647,74
643,85	12483,39
644,04	12657,47
644,24	12646,72
644,43	12543,30
644,62	12583,74
644,81	12545,34
645,00	12481,86
645,19	12370,76
645,38	12283,20
645,57	12194,63
645,76	12087,62
645,96	11979,59
646,15	11949,39
646,34	11928,91
646,53	11702,61
646,72	11786,57
646,91	11610,45
647,10	11461,46
647,29	11497,81
647,48	11387,73
647,67	11378,00
647,86	11300,69
648,05	11313,49
648,25	11138,90
648,44	11105,11
648,63	11100,50
648,82	11070,30
649,01	11010,39
649,20	10970,97
649,39	10873,69
649,58	10995,03
649,77	11025,24
649,96	11160,92
650,15	11137,37
650,34	11372,37
650,53	11434,32
650,72	11467,60
650,91	11258,71
651,11	11307,35
651,30	11023,19
651,49	11165,01
651,68	11012,95
651,87	10979,16
652,06	10937,18
652,25	11107,67
652,44	11090,77
652,63	11261,27
652,82	11169,11
653,01	11257,17
653,20	11192,15
653,39	11288,92
653,58	11213,14
653,77	11189,08
653,96	11128,15
654,15	11211,60
654,34	11090,77
654,53	10915,16
654,72	10766,68
654,91	10713,95
655,10	10623,84
655,29	10439,01
655,48	10351,46
655,67	10013,03
655,86	9750,89
656,05	9644,40
656,24	9169,78
656,43	9328,50
656,62	9316,72
656,81	9438,58
657,00	9481,58
657,19	9815,40
657,38	9875,82
657,57	10080,10
657,76	10240,87
657,95	10471,78
658,14	10480,48
658,33	10555,23
658,52	10502,50
658,71	10627,42
658,90	10443,10
659,09	10649,95
659,28	10641,76
659,47	10732,38
659,66	10741,08
659,85	10648,93
660,04	10719,07
660,23	10872,67
660,42	10758,49
660,61	10817,37
660,80	10747,74
660,99	10805,08
661,18	10829,66
661,37	10792,28
661,56	10835,29
661,75	10729,31
661,94	10831,19
662,13	10844,51
662,32	10741,08
662,51	10751,32
662,70	10752,35
662,89	10699,61
663,08	10666,33
663,27	10682,72
663,46	10514,78
663,65	10531,68
663,83	10456,93
664,02	10547,55
664,21	10539,87
664,40	10615,65
664,59	10601,82
664,78	10497,89
664,97	10513,25
665,16	10621,28
665,35	10454,37
665,54	10518,88
665,73	10521,44
665,92	10646,37
666,11	10419,04
666,30	10511,20
666,49	10327,91
666,67	10302,31
666,86	10222,44
667,05	10365,79
667,24	10278,24
667,43	10301,79
667,62	10180,45
667,81	10156,90
668,00	10177,38
668,19	10083,69
668,38	10158,95
668,57	10309,99
668,76	10204,52
668,94	10170,21
669,13	10106,21
669,32	10063,72
669,51	10253,67
669,70	10197,86
669,89	10201,96
670,08	10121,57
670,27	10016,62
670,46	10131,30
670,64	9986,41
670,83	9959,78
671,02	9882,99
671,21	10006,89
671,40	9877,35
671,59	9950,57
671,78	9806,19
671,97	9835,37
672,16	9846,63
672,34	9773,42
672,53	9854,31
672,72	9885,55
672,91	9810,28
673,10	9933,67
673,29	9845,10
673,48	9850,73
673,66	9762,67
673,85	9801,58
674,04	9766,76
674,23	9756,52
674,42	9743,72
674,61	9770,86
674,80	9577,84
674,98	9666,92
675,17	9660,27
675,36	9694,06
675,55	9611,63
675,74	9618,29
675,93	9610,09
676,12	9610,09
676,30	9621,36
676,49	9655,66
676,68	9603,44
676,87	9506,16
677,06	9521,52
677,25	9463,66
677,43	9580,40
677,62	9516,40
677,81	9467,25
678,00	9440,11
678,19	9568,62
678,37	9408,88
678,56	9382,26
678,75	9613,68
678,94	9427,82
679,13	9436,02
679,32	9446,26
679,50	9361,78
679,69	9399,15
679,88	9354,61
680,07	9332,59
680,26	9322,87
680,44	9315,70
680,63	9331,06
680,82	9206,13
681,01	9299,83
681,20	9258,35
681,38	9147,25
681,57	9161,59
681,76	9221,49
681,95	9148,79
682,14	9165,17
682,32	9141,62
682,51	9089,40
682,70	9091,45
682,89	9172,34
683,07	9057,14
683,26	8998,77
683,45	9005,94
683,64	8972,15
683,83	8792,95
684,01	8888,18
684,20	8809,34
684,39	8892,79
684,58	8851,32
684,76	8889,72
684,95	8749,43
685,14	8937,34
685,33	8763,26
685,52	8879,99
685,70	8648,06
685,89	8634,75
686,08	8333,18
686,27	8068,48
686,45	7579,02
686,64	7268,24
686,83	6660,51
687,02	6259,62
687,20	6066,60
687,39	5803,43
687,58	5731,24
687,76	5881,25
687,95	5988,77
688,14	6189,47
688,33	6360,48
688,51	6414,24
688,70	6462,88
688,89	6394,78
689,08	6275,49
689,26	6346,14
689,45	6362,53
689,64	6373,28
689,83	6504,86
690,01	6634,91
690,20	6628,25
690,39	6774,17
690,57	6750,10
690,76	6940,57
690,95	6955,93
691,14	7155,60
691,32	6989,72
691,51	7218,07
691,70	7178,13
691,88	7278,99
692,07	7185,81
692,26	7225,75
692,44	7266,71
692,63	7191,44
692,82	7205,78
693,01	7112,08
693,19	7086,48
693,38	6994,33
693,57	6952,34
693,75	7015,83
693,94	6831,00
694,13	6909,85
694,31	6908,82
694,50	7027,09
694,69	6788,50
694,87	7015,83
695,06	6972,31
695,25	7191,95
695,43	7070,10
695,62	7074,71
695,81	7160,72
695,99	7131,03
696,18	7270,80
696,37	7426,45
696,55	7503,76
696,74	7560,59
696,93	7594,89
697,11	7614,35
697,30	7603,60
697,49	7555,47
697,67	7590,28
697,86	7617,93
698,05	7434,64
698,23	7427,47
698,42	7414,67
698,61	7296,40
698,79	7255,44
698,98	7192,47
699,17	7149,97
699,35	7158,16
699,54	7068,56
699,72	7062,42
699,91	7056,79
700,10	6910,87
700,28	6881,18
700,47	6793,11
700,66	6890,90
700,84	6844,31
701,03	6833,05
701,21	6901,65
701,40	6795,67
701,59	6840,73
701,77	6807,45
701,96	6786,97
702,15	6801,82
702,33	6857,62
702,52	6875,03
702,70	6931,86
702,89	6955,41
703,08	6929,30
703,26	7011,73
703,45	7094,68
703,63	6965,14
703,82	7087,00
704,01	7172,50
704,19	7053,20
704,38	7153,55
704,56	7226,26
704,75	7149,97
704,94	7136,66
705,12	7077,78
705,31	7051,67
705,49	6997,40
705,68	7089,04
705,86	7041,43
706,05	7116,69
706,24	7032,72
706,42	6985,11
706,61	7045,01
706,79	7026,07
706,98	7130,52
707,17	7183,25
707,35	7149,46
707,54	7139,22
707,72	7114,64
707,91	7102,87
708,09	7115,67
708,28	7045,01
708,46	7123,86
708,65	7070,61
708,84	7181,20
709,02	7117,72
709,21	7091,09
709,39	7106,96
709,58	7169,43
709,76	7181,71
709,95	7057,30
710,13	7100,31
710,32	7071,64
710,50	7185,30
710,69	6998,42
710,88	7101,33
711,06	6968,73
711,25	7082,39
711,43	7091,60
711,62	7107,99
711,80	7054,74
711,99	6992,28
712,17	7009,17
712,36	6912,92
712,54	6954,90
712,73	6922,13
712,91	6884,25
713,10	6989,21
713,28	6895,00
713,47	6912,92
713,65	6808,98
713,84	6888,34
714,02	6856,09
714,21	6653,85
714,39	6750,62
714,58	6693,79
714,76	6565,79
714,95	6580,12
715,13	6559,64
715,32	6540,70
715,50	6437,79
715,69	6453,66
715,87	6241,18
716,06	6205,35
716,24	6028,20
716,43	5837,73
716,61	5498,28
716,80	5450,16
716,98	5108,66
717,17	4921,27
717,35	4835,25
717,54	4692,92
717,72	4562,87
717,91	4484,03
718,09	4390,84
718,28	4376,51
718,46	4147,14
718,65	4208,58
718,83	4098,50
719,01	4064,19
719,20	3919,30
719,38	3956,68
719,57	3807,69
719,75	3922,88
719,94	3908,55
720,12	3874,24
720,31	3939,27
720,49	3980,74
720,68	4287,93
720,86	4389,31
721,04	4613,05
721,23	4699,06
721,41	4850,10
721,60	5080,50
721,78	5142,96
721,97	5153,20
722,15	5248,43
722,34	5158,32
722,52	5241,26
722,70	5085,62
722,89	4993,97
723,07	4819,89
723,26	4680,63
723,44	4655,03
723,63	4423,10
723,81	4462,52
723,99	4422,59
724,18	4378,05
724,36	4378,56
724,55	4286,91
724,73	4204,99
724,91	4266,43
725,10	4209,09
725,28	4291,52
725,47	4232,13
725,65	4208,06
725,83	4265,92
726,02	4258,75
726,20	4214,72
726,39	4266,94
726,57	4278,72
726,75	4210,62
726,94	4332,48
727,12	4270,53
727,31	4161,47
727,49	4114,37
727,67	4174,78
727,86	4140,99
728,04	4169,66
728,23	4262,33
728,41	4248,00
728,59	4249,54
728,78	4270,01
728,96	4222,40
729,14	4210,11
729,33	4198,34
729,51	4133,82
729,69	4218,82
729,88	4168,13
730,06	4300,22
730,25	4297,15
730,43	4244,93
730,61	4204,99
730,80	4232,13
730,98	4130,75
731,16	4350,91
731,35	4272,06
731,53	4349,89
731,71	4435,90
731,90	4481,47
732,08	4609,47
732,26	4733,37
732,45	4756,92
732,63	4848,05
732,81	4798,39
733,00	4955,57
733,18	4919,22
733,36	5041,59
733,55	5006,77
733,73	5193,14
733,91	5104,56
734,10	5124,02
734,28	5169,59
734,46	5265,84
734,65	5113,27
734,83	5106,10
735,01	5133,23
735,20	5047,73
735,38	5017,52
735,56	5055,92
735,75	4978,61
735,93	4982,71
736,11	4969,91
736,30	5031,35
736,48	4942,26
736,66	5012,92
736,84	4970,93
737,03	5100,47
737,21	4978,10
737,39	5071,79
737,58	5084,08
737,76	5093,30
737,94	4996,02
738,12	5038,00
738,31	4976,56
738,49	4999,09
738,67	5054,90
738,86	4966,84
739,04	5048,75
739,22	5010,87
739,40	5022,13
739,59	5065,65
739,77	5029,30
739,95	5138,87
740,14	5100,98
740,32	5108,66
740,50	5111,73
740,68	5047,22
740,87	5078,96
741,05	5068,21
741,23	4988,34
741,41	5100,47
741,60	5134,26
741,78	5093,30
741,96	5025,72
742,14	5062,07
742,33	5044,66
742,51	5057,46
742,69	5087,15
742,87	5053,87
743,06	5112,24
743,24	5135,79
743,42	5079,99
743,60	5194,16
743,79	5064,11
743,97	5141,43
744,15	5057,97
744,33	5012,92
744,52	5063,09
744,70	5095,86
744,88	5048,24
745,06	4995,00
745,24	5008,82
745,43	5075,38
745,61	5051,83
745,79	5040,56
745,97	5026,23
746,16	5026,23
746,34	4999,60
746,52	5078,96
746,70	5001,65
746,88	5000,63
747,07	4911,54
747,25	4976,56
747,43	4913,59
747,61	4964,28
747,79	4856,25
747,98	4836,79
748,16	4874,17
748,34	4936,12
748,52	4874,68
748,70	4896,18
748,89	4799,93
749,07	4768,70
749,25	4835,77
749,43	4853,17
749,61	4782,52
749,79	4867,51
749,98	4809,65
750,16	4797,88
750,34	4752,82
750,52	4783,54
750,70	4785,59
750,88	4789,69
751,07	4813,75
751,25	4776,89
751,43	4659,13
751,61	4733,88
751,79	4779,45
751,97	4763,58
752,16	4684,22
752,34	4728,76
752,52	4712,38
752,70	4631,99
752,88	4716,47
753,06	4791,73
753,25	4698,55
753,43	4725,69
753,61	4731,32
753,79	4790,71
753,97	4677,56
754,15	4749,24
754,33	4662,20
754,52	4757,94
754,70	4695,48
754,88	4761,02
755,06	4763,06
755,24	4760,50
755,42	4668,34
755,60	4797,88
755,78	4718,01
755,97	4799,93
756,15	4628,41
756,33	4745,14
756,51	4782,01
756,69	4774,33
756,87	4763,58
757,05	4762,04
757,23	4708,28
757,41	4713,91
757,60	4745,14
757,78	4697,02
757,96	4692,92
758,14	4734,39
758,32	4651,96
758,50	4607,42
758,68	4390,33
758,86	4208,06
759,04	3917,25
759,22	3605,45
759,41	3233,23
759,59	2751,96
759,77	2281,44
759,95	1918,43
760,13	1506,28
760,31	1335,28
760,49	1080,82
760,67	1023,47
760,85	1033,71
761,03	952,82
761,21	1028,08
761,39	1215,98
761,57	1290,22
761,76	1420,27
761,94	1411,56
762,12	1405,93
762,30	1460,20
762,48	1297,90
762,66	1199,60
762,84	1179,63
763,02	1142,77
763,20	1189,36
763,38	1120,75
763,56	1147,89
763,74	1196,53
763,92	1346,54
764,10	1367,53
764,28	1518,57
764,46	1598,95
764,64	1647,08
764,82	1804,26
765,00	1951,20
765,19	2025,95
765,37	2193,89
765,55	2313,18
765,73	2515,93
765,91	2548,70
766,09	2731,48
766,27	2835,41
766,45	3018,71
766,63	3151,31
766,81	3297,74
766,99	3412,43
767,17	3448,27
767,35	3550,15
767,53	3729,86
767,71	3923,40
767,89	3998,66
768,07	4051,91
768,25	4041,15
768,43	4108,74
768,61	4181,95
768,79	4225,98
768,97	4258,24
769,15	4198,34
769,33	4406,20
769,51	4253,12
769,69	4337,60
769,87	4272,57
770,05	4342,72
770,23	4318,14
770,41	4367,29
770,59	4346,30
770,77	4472,25
770,95	4437,95
771,13	4458,94
771,31	4438,97
771,49	4405,69
771,67	4390,33
771,85	4437,95
772,03	4467,64
772,21	4446,65
772,38	4393,40
772,56	4365,25
772,74	4364,73
772,92	4340,16
773,10	4295,61
773,28	4361,15
773,46	4334,01
773,64	4339,65
773,82	4283,33
774,00	4390,84
774,18	4257,73
774,36	4289,47
774,54	4203,46
774,72	4253,63
774,90	4196,80
775,08	4285,37
775,26	4227,52
775,44	4244,42
775,62	4251,07
775,80	4230,08
775,97	4165,57
776,15	4291,01
776,33	4213,18
776,51	4125,12
776,69	4186,56
776,87	4182,98
777,05	4128,19
777,23	4145,60
777,41	4136,38
777,59	4109,76
777,77	4024,26
777,95	4166,08
778,13	3993,03
778,30	4075,97
778,48	4028,87
778,66	4058,56
778,84	3975,62
779,02	4048,83
779,20	3914,18
779,38	3949,51
779,56	3846,09
779,74	3935,68
779,92	3823,56
780,09	3933,64
780,27	3807,17
780,45	3897,28
780,63	3874,24
780,81	3802,05
780,99	3852,74
781,17	3870,15
781,35	3787,72
781,52	3850,69
781,70	3861,45
781,88	3751,37
782,06	3839,94
782,24	3824,58
782,42	3737,54
782,60	3740,10
782,78	3725,26
782,95	3648,97
783,13	3676,10
783,31	3647,94
783,49	3673,54
783,67	3652,04
783,85	3614,15
784,03	3585,48
784,20	3537,87
784,38	3641,29
784,56	3516,36
784,74	3595,21
784,92	3534,28
785,10	3495,88
785,28	3553,74
785,45	3543,50
785,63	3500,49
785,81	3548,62
785,99	3445,71
786,17	3481,03
786,35	3431,37
786,52	3438,54
786,70	3354,06
786,88	3410,38
787,06	3307,47
787,24	3366,35
787,41	3324,88
787,59	3323,85
787,77	3277,77
787,95	3286,48
788,13	3259,34
788,31	3228,11
788,48	3136,98
788,66	3135,44
788,84	3126,22
789,02	3061,71
789,20	3053,52
789,37	3044,82
789,55	3040,21
789,73	2978,77
789,91	2973,14
790,09	2955,22
790,26	3026,39
790,44	2980,82
790,62	2932,18
790,80	2900,95
790,98	2960,85
791,15	2970,07
791,33	2903,00
791,51	2967,51
791,69	2922,96
791,86	2916,82
792,04	2937,30
792,22	2869,20
792,40	2808,79
792,58	2827,73
792,75	2821,08
792,93	2772,44
793,11	2864,08
793,29	2773,46
793,46	2794,45
793,64	2787,29
793,82	2837,97
794,00	2863,57
794,17	2806,74
794,35	2807,25
794,53	2787,80
794,71	2913,75
794,88	2794,97
795,06	2737,62
795,24	2763,22
795,42	2745,30
795,59	2725,33
795,77	2666,46
795,95	2649,56
796,13	2649,56
796,30	2604,50
796,48	2587,10
796,66	2601,94
796,83	2581,98
797,01	2609,62
797,19	2708,44
797,37	2592,73
797,54	2602,46
797,72	2573,78
797,90	2643,42
798,08	2631,64
798,25	2574,30
798,43	2541,02
798,61	2620,38
798,78	2616,28
798,96	2560,47
799,14	2597,34
799,31	2533,34
799,49	2496,99
799,67	2430,43
799,85	2470,36
800,02	2496,47
800,20	2404,83
800,38	2379,74
800,55	2448,35
800,73	2465,75
800,91	2363,36
801,08	2357,21
801,26	2407,90
801,44	2384,86
801,61	2328,03
801,79	2380,76
801,97	2246,11
802,15	2355,16
802,32	2352,09
802,50	2336,22
802,68	2261,98
802,85	2331,10
803,03	2253,28
803,21	2261,98
803,38	2344,92
803,56	2278,88
803,74	2281,95
803,91	2238,94
804,09	2250,72
804,26	2253,79
804,44	2162,65
804,62	2290,14
804,79	2249,18
804,97	2295,26
805,15	2306,01
805,32	2311,13
805,50	2284,51
805,68	2222,56
805,85	2230,24
806,03	2310,62
806,21	2216,93
806,38	2231,77
806,56	2268,64
806,73	2245,60
806,91	2244,06
807,09	2255,33
807,26	2221,53
807,44	2234,85
807,62	2202,59
807,79	2240,99
807,97	2163,68
808,14	2177,50
808,32	2140,64
808,50	2142,18
808,67	2170,85
808,85	2104,80
809,02	2065,89
809,20	2127,33
809,38	2017,76
809,55	2026,98
809,73	1978,34
809,90	1991,14
810,08	1985,51
810,26	2019,30
810,43	1949,67
810,61	1975,78
810,78	1964,00
810,96	1858,02
811,14	1941,47
811,31	1941,47
811,49	1859,56
811,66	1872,87
811,84	1850,34
812,02	1829,86
812,19	1842,66
812,37	1818,60
812,54	1715,17
812,72	1649,64
812,89	1654,76
813,07	1646,57
813,25	1617,90
813,42	1575,40
813,60	1524,20
813,77	1546,22
813,95	1482,22
814,12	1514,98
814,30	1460,71
814,47	1459,18
814,65	1401,83
814,83	1428,97
815,00	1349,61
815,18	1318,38
815,35	1286,64
815,53	1256,94
815,70	1295,34
815,88	1296,88
816,05	1296,36
816,23	1234,93
816,40	1237,49
816,58	1231,85
816,75	1212,40
816,93	1197,55
817,10	1227,76
817,28	1181,17
817,46	1235,95
817,63	1183,73
817,81	1157,61
817,98	1144,30
818,16	1156,08
818,33	1160,69
818,51	1130,99
818,68	1149,93
818,86	1207,28
819,03	1178,09
819,21	1210,35
819,38	1232,37
819,56	1140,21
819,73	1215,98
819,91	1260,01
820,08	1289,71
820,26	1278,44
820,43	1302,51
820,61	1301,48
820,78	1348,59
820,96	1303,53
821,13	1361,90
821,31	1349,61
821,48	1370,60
821,66	1310,70
821,83	1299,95
822,00	1215,98
822,18	1230,83
822,35	1138,67
822,53	1124,85
822,70	1032,18
822,88	1054,70
823,05	965,62
823,23	999,92
823,40	1051,12
823,58	1056,75
823,75	1133,55
823,93	1135,09
824,10	1161,20
824,28	1150,45
824,45	1177,58
824,62	1239,53
824,80	1243,63
824,97	1266,16
825,15	1225,20
825,32	1247,72
825,50	1233,90
825,67	1243,12
825,85	1232,37
826,02	1249,26
826,19	1256,94
826,37	1267,18
826,54	1235,95
826,72	1254,89
826,89	1260,52
827,07	1168,88
827,24	1162,73
827,41	1164,27
827,59	1104,37
827,76	1154,03
827,94	1103,34
828,11	1192,43
828,28	1089,52
828,46	1187,82
828,63	1168,88
828,81	1126,89
828,98	1089,52
829,15	1147,89
829,33	1131,50
829,50	1117,17
829,68	1078,26
829,85	1164,27
830,02	1143,28
830,20	1176,56
830,37	1079,28
830,55	1100,78
830,72	1154,03
830,89	1118,19
831,07	1113,07
831,24	1072,11
831,42	1102,83
831,59	1080,30
831,76	1089,01
831,94	1083,89
832,11	1132,01
832,28	1085,94
832,46	1094,13
832,63	1055,22
832,81	1088,50
832,98	1035,76
833,15	1079,28
833,33	1090,54
833,50	1093,62
833,67	1106,93
833,85	1049,58
834,02	1058,29
834,19	1073,65
834,37	1120,24
834,54	1069,04
834,71	1099,25
834,89	1049,07
835,06	1117,17
835,23	1107,44
835,41	1119,73
835,58	1125,87
835,75	1142,25
835,93	1055,73
836,10	1147,37
836,27	1061,36
836,45	1118,19
836,62	1117,68
836,79	1146,35
836,97	1101,81
837,14	1111,02
837,31	1105,90
837,49	1141,74
837,66	1114,10
837,83	1154,03
838,01	1102,32
838,18	1064,94
838,35	1044,46
838,53	1079,28
838,70	1119,73
838,87	1093,10
839,04	1121,77
839,22	1157,61
839,39	1130,48
839,56	1148,40
839,74	1081,84
839,91	1085,94
840,08	1050,10
840,26	1102,83
840,43	1094,64
840,60	1100,27
840,77	1096,69
840,95	1079,79
841,12	1069,55
841,29	1053,17
841,46	1012,21
841,64	1101,81
841,81	1046,00
841,98	1060,85
842,16	1022,45
842,33	1082,35
842,50	1043,95
842,67	1007,60
842,85	1095,15
843,02	1035,25
843,19	1005,55
843,36	1071,09
843,54	1056,75
843,71	1046,51
843,88	1031,15
844,05	1018,35
844,23	1021,42
844,40	1011,18
844,57	969,71
844,74	957,94
844,92	999,41
845,09	980,98
845,26	1013,23
845,43	969,20
845,61	1041,39
845,78	1036,27
845,95	982,00
846,12	1002,99
846,29	998,90
846,47	1021,94
846,64	990,70
846,81	980,47
846,98	969,20
847,16	1012,21
847,33	989,68
847,50	1010,16
847,67	977,91
847,84	916,98
848,02	987,63
848,19	966,13
848,36	946,67
848,53	958,45
848,70	921,07
848,88	977,91
849,05	968,69
849,22	935,92
849,39	892,91
849,56	933,36
849,74	910,32
849,91	892,91
850,08	854,51
850,25	845,30
850,42	822,77
850,60	869,87
850,77	843,25
850,94	868,34
851,11	831,48
851,28	845,81
851,45	833,52
851,63	884,21
851,80	851,44
851,97	840,69
852,14	872,95
852,31	813,56
852,48	856,56
852,66	819,70
852,83	813,56
853,00	860,15
853,17	834,55
853,34	832,50
853,51	790,00
853,68	793,59
853,86	757,75
854,03	820,72
854,20	732,15
854,37	726,52
854,54	772,60
854,71	763,38
854,88	767,48
855,06	762,36
855,23	700,92
855,40	742,39
855,57	809,46
855,74	772,08
855,91	727,03
856,08	734,20
856,25	694,26
856,43	735,73
856,60	723,96
856,77	784,88
856,94	729,59
857,11	823,80
857,28	772,60
857,45	776,69
857,62	712,69
857,79	795,64
857,97	755,19
858,14	777,72
858,31	744,44
858,48	766,45
858,65	744,95
858,82	767,48
858,99	736,24
859,16	726,52
859,33	748,02
859,50	772,08
859,67	701,94
859,85	731,64
860,02	685,05
860,19	696,82
860,36	683,51
860,53	714,23
860,70	754,16
860,87	701,94
861,04	741,88
861,21	754,16
861,38	693,24
861,55	688,63
861,72	725,49
861,89	757,24
862,06	684,02
862,23	722,93
862,41	678,39
862,58	660,98
862,75	715,77
862,92	759,80
863,09	697,33
863,26	722,93
863,43	718,33
863,60	679,41
863,77	698,36
863,94	696,82
864,11	657,91
864,28	661,49
864,45	708,09
864,62	695,80
864,79	690,68
864,96	700,41
865,13	645,62
865,30	611,32
865,47	650,23
865,64	621,05
865,81	591,86
865,98	644,09
866,15	612,34
866,32	627,19
866,49	593,40
866,66	617,97
866,83	577,53
867,00	525,82
867,17	577,02
867,34	576,50
867,51	600,57
867,68	569,85
867,85	577,02
868,02	536,57
868,19	562,68
868,36	586,23
868,53	555,00
868,70	583,16
868,87	580,60
869,04	585,72
869,21	597,49
869,38	589,82
869,55	624,12
869,72	519,67
869,89	582,65
870,06	561,14
870,23	578,55
870,40	557,05
870,57	611,83
870,74	630,77
870,91	566,26
871,08	589,82
871,25	594,93
871,42	514,04
871,59	622,58
871,76	584,70
871,93	578,04
872,10	532,47
872,27	577,02
872,44	531,45
872,60	559,61
872,77	530,94
872,94	544,25
873,11	516,60
873,28	523,26
873,45	535,54
873,62	524,28
873,79	535,03
873,96	469,50
874,13	544,25
874,30	489,98
874,47	548,86
874,64	525,30
874,81	461,82
874,97	490,49
875,14	501,75
875,31	541,18
875,48	510,46
875,65	442,87
875,82	554,49
875,99	527,35
876,16	564,22
876,33	465,40
876,50	511,48
876,67	463,35
876,83	521,72
877,00	510,97
877,17	481,78
877,34	442,87
877,51	502,78
877,68	519,67
877,85	515,06
878,02	471,54
878,19	462,33
878,35	473,08
878,52	466,94
878,69	506,87
878,86	413,69
879,03	507,38
879,20	459,77
879,37	445,43
879,54	446,97
879,70	478,71
879,87	450,04
880,04	441,85
880,21	414,71
880,38	430,07
880,55	478,20
880,72	485,37
880,89	379,39
881,05	400,38
881,22	447,48
881,39	400,38
881,56	427,51
881,73	400,89
881,90	402,94
882,06	400,38
882,23	438,27
882,40	396,28
882,57	426,49
882,74	434,17
882,91	396,28
883,07	388,09
883,24	369,15
883,41	390,65
883,58	392,70
883,75	415,23
883,92	399,87
884,08	436,22
884,25	383,99
884,42	425,47
884,59	404,99
884,76	369,66
884,92	414,71
885,09	389,11
885,26	413,18
885,43	359,42
885,60	371,71
885,76	406,01
885,93	314,36
886,10	382,46
886,27	460,28
886,44	352,76
886,60	402,94
886,77	367,61
886,94	356,35
887,11	378,36
887,28	326,14
887,44	379,39
887,61	375,29
887,78	345,08
887,95	287,23
888,12	382,97
888,28	320,51
888,45	354,81
888,62	320,00
888,79	382,97
888,95	300,03
889,12	387,07
889,29	369,15
889,46	305,66
889,62	361,98
889,79	338,43
889,96	342,52
890,13	318,97
890,29	348,67
890,46	323,58
890,63	304,64
890,80	338,43
890,96	356,35
891,13	278,52
891,30	343,55
891,47	334,33
891,63	284,67
891,80	322,04
891,97	303,10
892,14	310,78
892,30	342,52
892,47	314,88
892,64	309,24
892,80	347,64
892,97	294,91
893,14	296,96
893,31	273,40
893,47	257,02
893,64	302,59
893,81	340,99
893,97	315,90
894,14	303,61
>>>>>End Processed Spectral Data<<<<<
