SpectraSuite Datei
++++++++++++++++++++++++++++++++++++
Datum: Mon Dec 11 15:21:03 CET 2017
Benutzer: Praktikum-Pc1
Dark-Spektrum vorhanden: Ja
Referenz-Spektrum vorhanden: Nein
Zahl der probierten Teilspektren: 1
Spektrometer: USB4H10187
Integrationszeit (usec): 150000 (USB4H10187)
Spektren Durchschnitt berechnet: 4 (USB4H10187)
Boxcar Glättung: 0 (USB4H10187)
Dunkelstromkorrektur: Nein (USB4H10187)
Puls/Lampe aktiviert: Nein (USB4H10187)
Correct for Detector Non-linearity: Nein (USB4H10187)
Streulichtkorrektur: Nein (USB4H10187)
Anzahl Pixel in verarbeitetem Spektrum: 3648
>>>>>Begin Processed Spectral Data<<<<<
176,80	-28,16
177,02	-28,16
177,24	-28,16
177,46	-13,82
177,68	10,75
177,91	122,37
178,13	116,22
178,35	100,35
178,57	59,39
178,79	211,45
179,02	225,28
179,24	79,36
179,46	127,49
179,68	43,01
179,90	41,98
180,12	131,58
180,35	111,10
180,57	96,25
180,79	138,24
181,01	109,05
181,23	67,58
181,46	107,01
181,68	165,37
181,90	100,35
182,12	159,23
182,34	175,61
182,56	130,56
182,79	78,33
183,01	111,10
183,23	112,64
183,45	140,80
183,67	55,30
183,89	112,64
184,12	134,14
184,34	92,67
184,56	170,49
184,78	93,69
185,00	162,81
185,22	73,21
185,45	69,12
185,67	172,03
185,89	162,81
186,11	132,61
186,33	131,58
186,55	126,46
186,77	143,36
187,00	115,20
187,22	154,11
187,44	111,61
187,66	78,33
187,88	86,01
188,10	200,70
188,32	71,68
188,55	119,29
188,77	153,09
188,99	77,82
189,21	141,82
189,43	124,41
189,65	76,29
189,87	156,67
190,10	269,31
190,32	156,67
190,54	105,98
190,76	198,65
190,98	120,83
191,20	174,59
191,42	120,32
191,64	79,36
191,87	113,15
192,09	146,94
192,31	77,82
192,53	125,44
192,75	132,09
192,97	116,22
193,19	99,84
193,41	61,95
193,64	137,21
193,86	111,10
194,08	155,65
194,30	33,28
194,52	144,38
194,74	174,59
194,96	47,10
195,18	126,46
195,40	53,25
195,63	90,62
195,85	71,17
196,07	55,81
196,29	122,88
196,51	143,87
196,73	148,99
196,95	149,50
197,17	76,80
197,39	126,97
197,61	176,13
197,84	114,17
198,06	90,11
198,28	122,88
198,50	19,97
198,72	129,53
198,94	132,61
199,16	128,00
199,38	190,46
199,60	39,94
199,82	76,29
200,04	153,09
200,26	100,35
200,49	65,02
200,71	43,01
200,93	155,13
201,15	90,62
201,37	85,50
201,59	76,29
201,81	119,29
202,03	211,45
202,25	52,74
202,47	94,21
202,69	86,53
202,91	133,12
203,13	81,41
203,35	86,01
203,58	64,00
203,80	142,33
204,02	66,05
204,24	31,23
204,46	119,81
204,68	155,65
204,90	115,20
205,12	150,53
205,34	116,22
205,56	150,53
205,78	133,63
206,00	108,03
206,22	66,05
206,44	103,93
206,66	16,90
206,88	129,53
207,10	62,46
207,32	227,84
207,54	166,91
207,76	95,23
207,99	69,12
208,21	90,62
208,43	183,29
208,65	53,25
208,87	134,14
209,09	118,27
209,31	58,37
209,53	17,41
209,75	207,36
209,97	135,17
210,19	53,76
210,41	138,75
210,63	120,83
210,85	79,87
211,07	168,96
211,29	114,17
211,51	141,82
211,73	181,25
211,95	141,31
212,17	137,21
212,39	132,09
212,61	156,16
212,83	59,90
213,05	137,73
213,27	185,34
213,49	100,86
213,71	55,81
213,93	137,73
214,15	163,84
214,37	167,93
214,59	141,82
214,81	74,75
215,03	49,15
215,25	74,24
215,47	109,05
215,69	131,58
215,91	108,54
216,13	110,08
216,35	155,13
216,57	92,67
216,79	155,13
217,01	127,49
217,23	86,01
217,45	118,27
217,67	155,13
217,89	188,41
218,11	158,21
218,33	98,30
218,55	70,65
218,77	81,92
218,99	77,31
219,21	109,05
219,43	74,24
219,65	183,29
219,87	181,25
220,09	188,93
220,31	96,77
220,53	134,65
220,75	44,54
220,97	32,77
221,19	64,00
221,41	73,21
221,63	108,54
221,85	157,69
222,06	103,42
222,28	178,69
222,50	139,26
222,72	128,51
222,94	64,00
223,16	153,60
223,38	189,44
223,60	54,27
223,82	92,67
224,04	173,05
224,26	97,28
224,48	109,05
224,70	157,18
224,92	83,97
225,14	132,61
225,36	199,68
225,58	94,72
225,80	144,89
226,02	129,53
226,24	103,42
226,45	90,11
226,67	59,39
226,89	-12,29
227,11	123,39
227,33	140,80
227,55	22,53
227,77	105,98
227,99	83,45
228,21	90,62
228,43	116,22
228,65	122,37
228,87	170,49
229,09	7,68
229,31	58,88
229,52	77,82
229,74	-10,24
229,96	143,87
230,18	131,07
230,40	129,53
230,62	105,47
230,84	204,80
231,06	-28,67
231,28	61,44
231,50	65,53
231,72	61,95
231,94	55,81
232,15	89,60
232,37	61,95
232,59	44,03
232,81	179,20
233,03	60,93
233,25	123,39
233,47	89,09
233,69	93,18
233,91	52,74
234,13	42,50
234,34	88,57
234,56	93,69
234,78	198,65
235,00	25,60
235,22	94,72
235,44	91,13
235,66	60,93
235,88	83,97
236,10	171,01
236,31	109,57
236,53	124,41
236,75	125,95
236,97	98,30
237,19	99,84
237,41	142,33
237,63	129,02
237,85	122,88
238,07	109,05
238,28	65,53
238,50	135,17
238,72	130,56
238,94	125,95
239,16	71,17
239,38	102,40
239,60	129,02
239,81	55,81
240,03	129,02
240,25	125,44
240,47	152,57
240,69	117,76
240,91	121,85
241,13	215,04
241,34	132,61
241,56	116,22
241,78	122,88
242,00	77,31
242,22	58,37
242,44	210,94
242,66	56,32
242,87	68,61
243,09	121,85
243,31	91,13
243,53	42,50
243,75	176,64
243,97	105,47
244,19	141,82
244,40	145,92
244,62	74,75
244,84	183,81
245,06	113,66
245,28	107,01
245,50	129,53
245,71	157,18
245,93	45,57
246,15	136,19
246,37	133,12
246,59	180,22
246,81	96,77
247,02	18,94
247,24	151,04
247,46	76,80
247,68	113,66
247,90	151,04
248,11	128,51
248,33	121,85
248,55	136,70
248,77	56,32
248,99	153,60
249,21	44,54
249,42	62,98
249,64	143,87
249,86	135,17
250,08	97,28
250,30	117,76
250,51	132,09
250,73	39,94
250,95	87,55
251,17	176,13
251,39	145,92
251,60	203,77
251,82	197,63
252,04	119,81
252,26	42,50
252,48	129,53
252,69	169,98
252,91	161,79
253,13	63,49
253,35	156,67
253,57	117,76
253,78	61,95
254,00	142,85
254,22	129,53
254,44	81,41
254,65	89,09
254,87	108,54
255,09	125,95
255,31	143,36
255,53	81,41
255,74	98,30
255,96	136,19
256,18	132,09
256,40	132,61
256,61	83,45
256,83	199,16
257,05	130,56
257,27	125,95
257,48	109,57
257,70	137,73
257,92	142,33
258,14	90,62
258,36	81,41
258,57	196,61
258,79	98,30
259,01	124,93
259,23	75,26
259,44	72,70
259,66	163,33
259,88	128,00
260,10	120,83
260,31	126,46
260,53	159,23
260,75	50,69
260,97	115,71
261,18	93,18
261,40	169,47
261,62	108,03
261,84	131,07
262,05	116,73
262,27	196,09
262,49	70,65
262,71	97,28
262,92	150,53
263,14	102,91
263,36	86,01
263,57	172,54
263,79	126,97
264,01	145,92
264,23	72,19
264,44	90,11
264,66	84,99
264,88	187,90
265,10	79,87
265,31	182,78
265,53	47,62
265,75	115,71
265,96	131,07
266,18	185,34
266,40	128,00
266,62	178,69
266,83	174,08
267,05	86,01
267,27	180,22
267,48	166,40
267,70	13,82
267,92	124,93
268,14	145,92
268,35	145,92
268,57	150,01
268,79	199,16
269,00	144,89
269,22	170,49
269,44	105,47
269,65	104,96
269,87	108,54
270,09	139,77
270,31	125,44
270,52	166,40
270,74	165,37
270,96	94,72
271,17	122,37
271,39	88,57
271,61	185,85
271,82	126,97
272,04	136,70
272,26	108,03
272,47	113,15
272,69	93,69
272,91	57,86
273,12	116,22
273,34	146,94
273,56	80,89
273,77	111,10
273,99	150,01
274,21	150,53
274,42	82,43
274,64	166,40
274,86	37,38
275,08	124,93
275,29	41,47
275,51	145,92
275,72	112,13
275,94	190,46
276,16	72,19
276,37	70,65
276,59	48,13
276,81	45,06
277,02	125,44
277,24	173,57
277,46	120,32
277,67	68,09
277,89	142,33
278,11	146,94
278,32	87,55
278,54	47,10
278,76	219,64
278,97	161,79
279,19	156,16
279,41	62,46
279,62	122,37
279,84	121,85
280,05	122,37
280,27	105,98
280,49	101,89
280,70	144,89
280,92	75,26
281,14	94,72
281,35	-2,05
281,57	103,42
281,79	127,49
282,00	117,76
282,22	221,18
282,43	156,16
282,65	131,58
282,87	81,41
283,08	109,05
283,30	156,67
283,52	216,06
283,73	96,77
283,95	130,05
284,16	97,79
284,38	148,48
284,60	184,83
284,81	140,80
285,03	133,12
285,24	108,54
285,46	148,99
285,68	120,83
285,89	163,33
286,11	79,36
286,32	184,83
286,54	117,76
286,76	104,96
286,97	182,78
287,19	94,21
287,40	123,39
287,62	164,35
287,84	113,66
288,05	115,20
288,27	147,45
288,48	122,37
288,70	139,77
288,92	136,19
289,13	109,05
289,35	124,93
289,56	103,42
289,78	98,81
289,99	148,48
290,21	130,56
290,43	106,49
290,64	92,67
290,86	163,33
291,07	135,17
291,29	163,84
291,51	111,61
291,72	123,90
291,94	142,33
292,15	161,28
292,37	136,70
292,58	99,33
292,80	156,67
293,01	103,93
293,23	134,65
293,45	135,17
293,66	124,41
293,88	200,70
294,09	-16,90
294,31	69,12
294,52	91,13
294,74	100,86
294,96	109,05
295,17	79,87
295,39	116,73
295,60	152,57
295,82	89,09
296,03	131,07
296,25	75,77
296,46	154,11
296,68	71,68
296,89	68,61
297,11	57,34
297,32	205,82
297,54	167,93
297,76	108,54
297,97	97,28
298,19	153,60
298,40	183,81
298,62	119,81
298,83	112,13
299,05	145,41
299,26	122,88
299,48	71,68
299,69	202,24
299,91	37,38
300,12	165,89
300,34	166,91
300,55	140,80
300,77	134,14
300,98	9,73
301,20	63,49
301,41	37,89
301,63	123,39
301,84	78,33
302,06	167,42
302,28	64,51
302,49	79,87
302,71	177,66
302,92	9,73
303,14	132,61
303,35	174,08
303,57	102,40
303,78	133,12
304,00	136,70
304,21	76,80
304,43	118,27
304,64	141,82
304,86	53,76
305,07	108,03
305,29	138,24
305,50	94,72
305,71	108,03
305,93	146,94
306,14	180,22
306,36	150,53
306,57	125,44
306,79	162,30
307,00	49,15
307,22	155,65
307,43	65,54
307,65	153,60
307,86	130,56
308,08	149,50
308,29	154,62
308,51	97,79
308,72	139,26
308,94	110,59
309,15	132,09
309,37	83,97
309,58	52,74
309,80	100,86
310,01	139,26
310,22	142,85
310,44	128,00
310,65	114,69
310,87	157,69
311,08	168,45
311,30	79,87
311,51	204,28
311,73	147,45
311,94	98,81
312,16	73,21
312,37	163,84
312,58	199,68
312,80	85,50
313,01	105,98
313,23	131,58
313,44	159,23
313,66	64,51
313,87	205,82
314,09	9,73
314,30	88,57
314,51	147,97
314,73	52,22
314,94	160,25
315,16	110,59
315,37	136,70
315,59	69,12
315,80	62,46
316,01	128,00
316,23	131,07
316,44	172,03
316,66	190,97
316,87	187,90
317,09	156,67
317,30	146,43
317,51	88,06
317,73	144,89
317,94	71,17
318,16	194,56
318,37	55,30
318,58	-6,66
318,80	162,81
319,01	97,28
319,23	236,03
319,44	70,65
319,66	141,82
319,87	164,86
320,08	157,18
320,30	117,76
320,51	118,78
320,73	75,26
320,94	196,61
321,15	112,13
321,37	129,02
321,58	110,59
321,80	157,18
322,01	121,85
322,22	66,56
322,44	104,45
322,65	155,13
322,86	131,07
323,08	153,60
323,29	147,97
323,51	130,05
323,72	91,65
323,93	182,27
324,15	144,89
324,36	92,16
324,58	155,13
324,79	139,26
325,00	138,75
325,22	148,99
325,43	86,53
325,64	89,09
325,86	112,64
326,07	73,21
326,28	154,11
326,50	148,99
326,71	48,64
326,93	80,89
327,14	153,09
327,35	53,25
327,57	162,30
327,78	123,39
327,99	184,32
328,21	115,20
328,42	155,13
328,63	154,11
328,85	105,98
329,06	85,50
329,27	121,85
329,49	140,29
329,70	108,54
329,91	163,33
330,13	79,36
330,34	136,19
330,56	26,11
330,77	117,25
330,98	158,21
331,20	101,37
331,41	206,84
331,62	123,39
331,84	147,97
332,05	134,14
332,26	195,58
332,48	166,40
332,69	103,42
332,90	125,95
333,11	82,94
333,33	77,82
333,54	142,33
333,75	78,85
333,97	39,94
334,18	187,39
334,39	171,01
334,61	169,98
334,82	196,61
335,03	110,59
335,25	111,10
335,46	132,09
335,67	169,47
335,89	107,01
336,10	97,79
336,31	105,98
336,53	68,09
336,74	169,47
336,95	198,14
337,16	99,33
337,38	103,42
337,59	258,56
337,80	94,21
338,02	125,44
338,23	192,00
338,44	108,54
338,65	138,75
338,87	154,11
339,08	174,08
339,29	199,68
339,51	110,59
339,72	98,30
339,93	144,89
340,14	140,29
340,36	129,53
340,57	112,64
340,78	105,47
341,00	47,10
341,21	142,85
341,42	262,14
341,63	96,77
341,85	65,54
342,06	144,38
342,27	134,65
342,49	154,11
342,70	152,57
342,91	136,70
343,12	169,98
343,34	158,21
343,55	100,86
343,76	129,53
343,97	161,28
344,19	165,37
344,40	116,22
344,61	183,81
344,82	77,31
345,04	120,83
345,25	176,64
345,46	75,26
345,67	112,64
345,89	137,21
346,10	130,05
346,31	110,08
346,52	87,55
346,74	117,76
346,95	190,97
347,16	122,88
347,37	64,51
347,59	116,22
347,80	114,17
348,01	160,25
348,22	141,82
348,43	111,61
348,65	76,29
348,86	129,02
349,07	201,72
349,28	66,05
349,50	130,05
349,71	134,14
349,92	99,33
350,13	139,77
350,34	92,67
350,56	119,81
350,77	156,16
350,98	145,41
351,19	133,12
351,41	188,93
351,62	218,11
351,83	54,78
352,04	169,47
352,25	146,43
352,47	189,95
352,68	227,32
352,89	60,93
353,10	163,33
353,31	143,87
353,53	134,14
353,74	124,93
353,95	161,28
354,16	141,82
354,37	185,34
354,59	149,50
354,80	150,01
355,01	109,57
355,22	122,88
355,43	87,04
355,65	50,18
355,86	186,88
356,07	136,70
356,28	147,97
356,49	33,28
356,70	150,01
356,92	143,36
357,13	73,73
357,34	113,66
357,55	224,25
357,76	208,89
357,98	76,80
358,19	144,38
358,40	67,07
358,61	132,61
358,82	129,53
359,03	116,22
359,25	198,65
359,46	217,08
359,67	150,53
359,88	107,01
360,09	99,33
360,30	120,83
360,51	87,04
360,73	168,45
360,94	114,69
361,15	62,98
361,36	53,76
361,57	161,79
361,78	94,72
362,00	96,25
362,21	137,21
362,42	159,74
362,63	110,08
362,84	126,46
363,05	55,30
363,26	88,57
363,48	172,03
363,69	176,13
363,90	140,80
364,11	53,76
364,32	61,95
364,53	90,62
364,74	129,53
364,95	67,07
365,17	117,25
365,38	148,99
365,59	196,60
365,80	144,38
366,01	85,50
366,22	130,05
366,43	39,42
366,64	148,48
366,86	109,57
367,07	101,37
367,28	182,27
367,49	128,00
367,70	167,42
367,91	98,81
368,12	60,42
368,33	75,26
368,54	209,40
368,76	87,55
368,97	93,18
369,18	83,97
369,39	101,37
369,60	65,53
369,81	145,92
370,02	163,33
370,23	122,88
370,44	93,18
370,65	56,83
370,87	84,99
371,08	148,48
371,29	132,61
371,50	110,59
371,71	144,89
371,92	155,13
372,13	124,41
372,34	91,65
372,55	77,82
372,76	181,25
372,97	131,07
373,18	184,83
373,40	129,02
373,61	105,47
373,82	120,32
374,03	165,37
374,24	160,25
374,45	71,17
374,66	192,51
374,87	206,84
375,08	90,62
375,29	105,98
375,50	113,15
375,71	100,35
375,92	172,03
376,13	49,15
376,34	101,89
376,56	115,20
376,77	200,19
376,98	118,78
377,19	147,97
377,40	95,23
377,61	201,21
377,82	161,79
378,03	143,36
378,24	128,51
378,45	178,69
378,66	89,09
378,87	78,85
379,08	121,85
379,29	162,30
379,50	185,34
379,71	44,03
379,92	122,88
380,13	125,44
380,34	103,42
380,55	177,15
380,76	165,37
380,97	215,04
381,18	152,57
381,39	134,14
381,60	206,84
381,81	42,50
382,02	126,46
382,24	105,98
382,45	81,92
382,66	137,21
382,87	123,90
383,08	152,06
383,29	105,47
383,50	177,15
383,71	129,02
383,92	89,60
384,13	23,55
384,34	193,02
384,55	114,17
384,76	115,71
384,97	100,35
385,18	60,42
385,39	86,01
385,60	147,97
385,81	167,42
386,02	131,58
386,23	196,61
386,44	92,16
386,65	97,79
386,86	98,81
387,07	180,73
387,28	132,61
387,49	114,69
387,70	101,89
387,91	131,07
388,12	183,81
388,32	83,45
388,53	87,04
388,74	90,11
388,95	73,21
389,16	65,54
389,37	92,67
389,58	140,29
389,79	178,69
390,00	154,62
390,21	146,94
390,42	93,18
390,63	132,61
390,84	67,07
391,05	177,15
391,26	202,24
391,47	53,76
391,68	90,62
391,89	146,94
392,10	217,08
392,31	151,55
392,52	115,20
392,73	10,75
392,94	201,21
393,15	77,82
393,36	143,36
393,57	93,18
393,78	142,85
393,98	184,83
394,19	90,62
394,40	206,84
394,61	97,79
394,82	145,92
395,03	119,81
395,24	178,17
395,45	67,58
395,66	153,60
395,87	34,82
396,08	108,03
396,29	186,37
396,50	152,57
396,71	89,09
396,92	139,77
397,12	173,57
397,33	133,63
397,54	81,41
397,75	125,44
397,96	155,13
398,17	135,17
398,38	93,69
398,59	181,25
398,80	29,70
399,01	170,49
399,22	157,18
399,43	105,98
399,63	164,86
399,84	146,94
400,05	160,77
400,26	115,71
400,47	143,36
400,68	178,17
400,89	127,49
401,10	131,07
401,31	132,61
401,52	96,77
401,72	158,72
401,93	82,94
402,14	134,14
402,35	168,96
402,56	143,87
402,77	118,27
402,98	156,67
403,19	132,61
403,40	171,52
403,60	152,57
403,81	179,71
404,02	140,29
404,23	153,60
404,44	161,79
404,65	146,94
404,86	180,22
405,07	123,39
405,27	103,93
405,48	108,03
405,69	118,27
405,90	184,83
406,11	202,24
406,32	132,09
406,53	197,63
406,74	166,91
406,94	140,29
407,15	136,70
407,36	136,19
407,57	134,65
407,78	177,66
407,99	144,89
408,20	146,94
408,40	182,27
408,61	195,07
408,82	251,90
409,03	150,53
409,24	218,62
409,45	131,58
409,65	218,62
409,86	204,28
410,07	77,82
410,28	185,85
410,49	251,39
410,70	269,31
410,90	238,08
411,11	192,51
411,32	217,08
411,53	207,36
411,74	225,28
411,95	241,15
412,15	310,27
412,36	147,45
412,57	248,32
412,78	221,69
412,99	285,69
413,20	222,20
413,40	206,84
413,61	277,50
413,82	236,03
414,03	221,69
414,24	300,03
414,44	281,08
414,65	240,12
414,86	217,08
415,07	308,22
415,28	312,32
415,48	293,37
415,69	205,31
415,90	310,27
416,11	306,17
416,32	323,07
416,53	290,30
416,73	390,14
416,94	344,57
417,15	328,19
417,36	382,46
417,56	354,81
417,77	292,35
417,98	312,83
418,19	471,03
418,40	381,95
418,60	348,67
418,81	399,87
419,02	394,23
419,23	334,84
419,44	383,99
419,64	431,10
419,85	478,71
420,06	462,84
420,27	427,00
420,47	437,75
420,68	519,16
420,89	536,57
421,10	443,39
421,30	533,50
421,51	550,90
421,72	552,95
421,93	550,39
422,14	602,10
422,34	626,68
422,55	547,83
422,76	566,26
422,97	560,12
423,17	677,88
423,38	675,83
423,59	613,37
423,80	736,76
424,00	695,29
424,21	788,98
424,42	719,35
424,63	735,22
424,83	710,13
425,04	885,75
425,25	764,40
425,46	909,81
425,66	877,55
425,87	935,41
426,08	967,67
426,28	1024,50
426,49	1002,48
426,70	1112,56
426,91	1077,23
427,11	1168,88
427,32	1198,06
427,53	1134,06
427,74	1180,65
427,94	1151,47
428,15	1313,77
428,36	1267,69
428,56	1232,37
428,77	1343,47
428,98	1336,30
429,19	1480,17
429,39	1484,78
429,60	1467,88
429,81	1546,73
430,01	1620,46
430,22	1611,24
430,43	1667,56
430,64	1625,06
430,84	1656,81
431,05	1853,41
431,26	1845,22
431,46	1885,16
431,67	1905,12
431,88	2025,44
432,08	2119,14
432,29	2103,26
432,50	2152,93
432,70	2348,51
432,91	2338,78
433,12	2400,22
433,33	2419,16
433,53	2496,47
433,74	2652,12
433,95	2693,08
434,15	2647,00
434,36	2790,36
434,57	2875,35
434,77	2840,02
434,98	3008,98
435,19	3047,38
435,39	3143,63
435,60	3284,94
435,81	3422,67
436,01	3476,94
436,22	3598,28
436,43	3691,46
436,63	3871,17
436,84	3983,30
437,05	3942,85
437,25	3941,83
437,46	4270,01
437,67	4288,45
437,87	4381,63
438,08	4449,72
438,29	4635,07
438,49	4723,13
438,70	4751,29
438,91	5027,76
439,11	5228,98
439,32	5537,71
439,52	5383,09
439,73	5388,21
439,94	5555,63
440,14	5874,09
440,35	6075,81
440,56	6172,58
440,76	6167,97
440,97	6496,67
441,18	6620,57
441,38	6656,92
441,59	6943,13
441,79	6965,14
442,00	7446,41
442,21	7504,78
442,41	7638,92
442,62	7669,13
442,83	7934,34
443,03	8115,59
443,24	8352,13
443,44	8705,40
443,65	8863,61
443,86	8964,98
444,06	9276,79
444,27	9617,26
444,48	9785,71
444,68	9936,74
444,89	10171,24
445,09	10767,20
445,30	10558,30
445,51	11109,21
445,71	11160,41
445,92	11426,64
446,12	11827,53
446,33	12109,64
446,54	12331,84
446,74	12675,90
446,95	12623,17
447,15	13252,92
447,36	13434,68
447,57	13505,84
447,77	13880,11
447,98	14432,04
448,18	14369,06
448,39	14587,68
448,59	15195,42
448,80	15648,53
449,01	15837,97
449,21	16091,91
449,42	16539,91
449,62	17312,50
449,83	17333,50
450,04	17563,89
450,24	18526,44
450,45	18611,43
450,65	18837,22
450,86	19373,78
451,06	20032,21
451,27	20635,85
451,47	20100,30
451,68	20990,66
451,89	21457,08
452,09	21969,07
452,30	21936,82
452,50	22959,27
452,71	23629,98
452,91	23996,56
453,12	24404,11
453,33	24764,55
453,53	24512,65
453,74	26198,13
453,94	26181,23
454,15	25931,38
454,35	26338,41
454,56	27578,97
454,76	28651,59
454,97	28242,51
455,17	28919,37
455,38	29902,39
455,58	30417,46
455,79	30433,33
456,00	31418,40
456,20	31897,11
456,41	32516,62
456,61	32073,24
456,82	32524,82
457,02	33821,69
457,23	34318,32
457,43	35011,05
457,64	34613,23
457,84	35004,39
458,05	36024,28
458,25	36083,16
458,46	36998,60
458,66	37267,91
458,87	37611,97
459,07	38682,03
459,28	38511,03
459,48	38814,13
459,69	39557,03
459,89	39287,72
460,10	40263,58
460,30	41473,42
460,51	41377,67
460,71	41374,60
460,92	41679,75
461,12	42497,91
461,33	43089,26
461,53	42128,25
461,74	42347,39
461,94	42791,80
462,15	43792,23
462,35	43572,58
462,56	42842,99
462,76	43487,08
462,97	44178,27
463,17	43643,75
463,38	43775,84
463,58	43235,69
463,79	44899,67
463,99	43838,82
464,20	44584,79
464,40	43805,54
464,61	43737,44
464,81	44288,86
465,02	43469,67
465,22	43575,66
465,43	44148,06
465,63	43002,22
465,83	42952,05
466,04	43688,81
466,24	42460,54
466,45	44047,20
466,65	42255,74
466,86	41965,44
467,06	41801,09
467,27	41532,81
467,47	41843,07
467,68	40921,49
467,88	40763,79
468,08	40019,87
468,29	39685,54
468,49	39620,00
468,70	39370,15
468,90	38920,11
469,11	38837,17
469,31	38478,26
469,52	37798,85
469,72	39192,49
469,92	37248,97
470,13	36956,11
470,33	36361,69
470,54	35152,87
470,74	35469,28
470,95	35326,95
471,15	34989,55
471,35	33999,87
471,56	33991,67
471,76	33869,82
471,97	33135,62
472,17	32647,69
472,38	32548,88
472,58	32230,42
472,78	31891,48
472,99	31431,71
473,19	30707,76
473,40	30942,25
473,60	29663,29
473,80	29864,50
474,01	29697,59
474,21	29259,84
474,42	28885,58
474,62	28916,29
474,83	27861,59
475,03	28133,97
475,23	27288,16
475,44	27298,40
475,64	27007,59
475,85	26343,02
476,05	25794,68
476,25	26239,60
476,46	25766,52
476,66	25233,02
476,86	25005,19
477,07	24668,81
477,27	24861,32
477,48	24146,58
477,68	23800,98
477,88	24215,69
478,09	23193,25
478,29	23423,13
478,50	23030,43
478,70	22433,45
478,90	22299,82
479,11	22163,12
479,31	22090,93
479,51	21954,74
479,72	21524,66
479,92	21461,69
480,12	21187,77
480,33	20774,60
480,53	20501,19
480,74	20320,97
480,94	20244,17
481,14	20019,41
481,35	19560,15
481,55	19315,42
481,75	19065,05
481,96	18996,45
482,16	18509,54
482,36	18409,19
482,57	18296,55
482,77	17737,46
482,97	17683,70
483,18	17508,60
483,38	17136,38
483,58	17034,49
483,79	16577,80
483,99	16493,83
484,19	16191,24
484,40	15955,72
484,60	15590,16
484,80	15696,66
485,01	15428,88
485,21	15024,92
485,41	14618,40
485,62	14569,76
485,82	14172,97
486,02	14134,06
486,23	13752,62
486,43	13684,53
486,63	13436,72
486,84	13351,22
487,04	12910,91
487,24	12802,36
487,45	12469,06
487,65	12477,76
487,85	12143,43
488,06	12056,90
488,26	11708,75
488,46	11573,07
488,67	11304,79
488,87	11161,43
489,07	10942,30
489,27	10846,55
489,48	10553,69
489,68	10361,70
489,88	10235,24
490,09	10067,30
490,29	9826,15
490,49	9697,64
490,70	9564,01
490,90	9423,73
491,10	9062,77
491,30	9109,36
491,51	8750,97
491,71	8886,65
491,91	8651,13
492,12	8450,94
492,32	8191,36
492,52	8089,48
492,72	8010,63
492,93	7874,95
493,13	7693,71
493,33	7635,85
493,53	7459,21
493,74	7293,33
493,94	7204,75
494,14	7010,71
494,34	6976,41
494,55	6797,72
494,75	6641,05
494,95	6599,58
495,16	6497,18
495,36	6235,04
495,56	6211,49
495,76	6193,57
495,97	6045,09
496,17	5922,21
496,37	5818,28
496,57	5767,59
496,78	5618,09
496,98	5581,23
497,18	5472,68
497,38	5413,29
497,59	5263,79
497,79	5105,07
497,99	5084,08
498,19	4931,00
498,39	4870,07
498,60	4787,13
498,80	4672,44
499,00	4669,88
499,20	4601,79
499,41	4417,98
499,61	4365,25
499,81	4366,78
500,01	4324,80
500,22	4158,40
500,42	4116,93
500,62	4078,02
500,82	4006,85
501,02	3844,04
501,23	3809,22
501,43	3730,89
501,63	3722,70
501,83	3644,36
502,03	3575,24
502,24	3463,12
502,44	3392,46
502,64	3404,75
502,84	3286,48
503,05	3231,18
503,25	3173,33
503,45	3081,68
503,65	3153,87
503,85	2998,74
504,06	2946,00
504,26	2791,89
504,46	2830,80
504,66	2743,77
504,86	2790,87
505,06	2709,46
505,27	2577,88
505,47	2629,59
505,67	2593,24
505,87	2524,12
506,07	2502,62
506,28	2478,04
506,48	2339,80
506,68	2387,42
506,88	2260,96
507,08	2207,20
507,28	2218,46
507,49	2163,17
507,69	2132,45
507,89	2060,77
508,09	2020,32
508,29	2057,18
508,49	1991,65
508,70	2000,87
508,90	1909,73
509,10	1872,87
509,30	1804,77
509,50	1778,66
509,70	1832,93
509,91	1852,39
510,11	1685,48
510,31	1580,01
510,51	1572,33
510,71	1633,26
510,91	1592,30
511,11	1503,72
511,32	1622,50
511,52	1542,12
511,72	1597,93
511,92	1475,56
512,12	1404,39
512,32	1323,50
512,52	1388,52
512,73	1333,74
512,93	1432,55
513,13	1303,02
513,33	1324,01
513,53	1327,08
513,73	1356,78
513,93	1290,22
514,13	1217,01
514,34	1192,43
514,54	1294,83
514,74	1204,72
514,94	1204,72
515,14	1181,68
515,34	1133,04
515,54	1142,77
515,74	1157,10
515,94	1105,39
516,15	1126,38
516,35	1143,28
516,55	1038,83
516,75	1073,65
516,95	1010,67
517,15	948,21
517,35	929,27
517,55	1025,52
517,75	974,83
517,95	987,63
518,16	944,63
518,36	841,72
518,56	835,57
518,76	960,50
518,96	900,08
519,16	823,80
519,36	901,11
519,56	890,87
519,76	876,02
519,96	762,36
520,16	814,07
520,37	717,81
520,57	798,71
520,77	836,08
520,97	717,30
521,17	725,49
521,37	756,72
521,57	735,22
521,77	728,56
521,97	713,72
522,17	666,10
522,37	768,50
522,57	639,48
522,77	622,58
522,97	731,12
523,17	641,53
523,37	631,80
523,58	708,09
523,78	509,94
523,98	650,74
524,18	672,76
524,38	632,82
524,58	636,92
524,78	564,73
524,98	559,61
525,18	602,10
525,38	543,22
525,58	524,79
525,78	505,34
525,98	483,83
526,18	588,28
526,38	521,21
526,58	534,01
526,78	505,85
526,98	474,10
527,18	504,82
527,38	512,50
527,58	454,65
527,78	464,38
527,98	504,82
528,18	498,17
528,38	452,09
528,58	470,01
528,78	407,03
528,98	464,89
529,18	389,11
529,38	348,15
529,58	393,72
529,78	411,13
529,98	389,63
530,18	349,69
530,38	473,08
530,58	381,95
530,78	481,78
530,98	391,16
531,18	411,64
531,38	431,10
531,58	478,71
531,78	411,13
531,98	309,24
532,18	343,55
532,38	354,30
532,58	414,71
532,78	308,22
532,98	454,14
533,18	283,64
533,38	419,32
533,58	313,85
533,78	406,01
533,98	349,18
534,18	371,19
534,38	397,31
534,58	299,00
534,78	415,74
534,98	313,85
535,18	297,98
535,38	434,68
535,58	330,75
535,78	303,61
535,98	292,86
536,18	296,44
536,38	321,02
536,58	322,56
536,78	331,26
536,98	311,80
537,18	332,79
537,38	247,29
537,58	364,54
537,78	242,68
537,98	311,80
538,17	348,15
538,37	294,40
538,57	188,41
538,77	220,16
538,97	262,65
539,17	208,38
539,37	226,30
539,57	209,92
539,77	268,80
539,97	215,04
540,17	248,83
540,37	210,43
540,57	234,49
540,77	192,51
540,97	241,15
541,16	220,16
541,36	248,83
541,56	270,33
541,76	219,64
541,96	219,13
542,16	276,99
542,36	192,00
542,56	197,63
542,76	304,12
542,96	130,05
543,16	251,39
543,36	210,43
543,55	200,70
543,75	237,56
543,95	152,57
544,15	207,87
544,35	214,52
544,55	284,67
544,75	137,73
544,95	230,40
545,15	164,86
545,35	275,96
545,54	308,73
545,74	203,26
545,94	179,71
546,14	184,83
546,34	166,91
546,54	295,42
546,74	154,11
546,94	141,31
547,14	152,57
547,33	188,93
547,53	127,49
547,73	165,37
547,93	253,95
548,13	200,19
548,33	171,01
548,53	165,37
548,72	161,28
548,92	204,28
549,12	195,07
549,32	203,26
549,52	194,05
549,72	250,88
549,92	172,03
550,12	116,73
550,31	168,96
550,51	180,73
550,71	236,54
550,91	202,24
551,11	212,99
551,31	117,25
551,50	181,25
551,70	184,83
551,90	130,56
552,10	89,09
552,30	160,77
552,50	216,06
552,70	96,77
552,89	115,20
553,09	245,24
553,29	148,99
553,49	241,15
553,69	179,71
553,88	159,23
554,08	121,34
554,28	195,07
554,48	212,99
554,68	280,57
554,88	138,24
555,07	172,54
555,27	165,89
555,47	190,46
555,67	103,93
555,87	150,53
556,06	220,16
556,26	178,17
556,46	171,01
556,66	223,23
556,86	172,54
557,06	193,02
557,25	135,68
557,45	-2,56
557,65	126,97
557,85	167,93
558,05	96,25
558,24	147,97
558,44	196,61
558,64	143,87
558,84	194,56
559,03	167,93
559,23	203,26
559,43	182,27
559,63	192,51
559,83	117,25
560,02	145,92
560,22	213,50
560,42	137,73
560,62	179,20
560,82	108,03
561,01	95,74
561,21	163,33
561,41	80,89
561,61	176,13
561,80	162,81
562,00	133,63
562,20	116,73
562,40	132,09
562,59	105,47
562,79	87,04
562,99	194,05
563,19	257,53
563,38	156,67
563,58	199,68
563,78	171,52
563,98	135,68
564,17	109,57
564,37	120,83
564,57	264,19
564,77	177,15
564,96	200,70
565,16	152,06
565,36	181,25
565,56	164,86
565,75	118,78
565,95	177,15
566,15	137,21
566,35	150,01
566,54	136,19
566,74	123,39
566,94	123,39
567,14	153,09
567,33	224,76
567,53	233,98
567,73	158,72
567,92	194,56
568,12	92,16
568,32	179,71
568,52	122,37
568,71	35,84
568,91	67,07
569,11	143,87
569,30	81,92
569,50	196,60
569,70	100,35
569,90	120,83
570,09	116,22
570,29	178,17
570,49	161,79
570,68	131,58
570,88	124,93
571,08	108,03
571,27	197,12
571,47	174,08
571,67	211,45
571,87	108,03
572,06	139,26
572,26	96,77
572,46	178,17
572,65	58,88
572,85	81,41
573,05	109,05
573,24	115,71
573,44	135,17
573,64	101,37
573,83	166,40
574,03	139,77
574,23	125,95
574,42	109,57
574,62	95,74
574,82	80,38
575,01	18,43
575,21	101,37
575,41	126,97
575,60	92,16
575,80	85,50
576,00	131,07
576,19	44,54
576,39	5,63
576,59	125,44
576,78	110,59
576,98	104,45
577,18	155,13
577,37	99,33
577,57	107,52
577,77	72,19
577,96	122,88
578,16	143,36
578,35	103,93
578,55	141,82
578,75	124,93
578,94	99,84
579,14	244,22
579,34	226,81
579,53	110,59
579,73	52,22
579,93	150,53
580,12	66,05
580,32	94,72
580,51	101,37
580,71	109,05
580,91	121,85
581,10	133,12
581,30	135,68
581,50	145,92
581,69	60,42
581,89	72,19
582,08	81,92
582,28	181,76
582,48	109,57
582,67	61,95
582,87	55,30
583,06	137,73
583,26	243,71
583,46	87,55
583,65	110,08
583,85	66,05
584,04	103,93
584,24	79,87
584,44	29,70
584,63	109,05
584,83	104,96
585,02	86,01
585,22	166,40
585,42	107,01
585,61	72,70
585,81	90,11
586,00	107,52
586,20	200,19
586,39	136,19
586,59	118,27
586,79	136,70
586,98	192,51
587,18	75,77
587,37	128,51
587,57	200,70
587,76	109,05
587,96	120,32
588,16	145,41
588,35	136,19
588,55	30,72
588,74	84,99
588,94	116,22
589,13	173,05
589,33	132,61
589,52	48,64
589,72	128,00
589,92	82,43
590,11	139,26
590,31	90,62
590,50	211,96
590,70	72,70
590,89	34,82
591,09	91,65
591,28	133,12
591,48	137,73
591,67	141,82
591,87	118,27
592,06	126,97
592,26	55,30
592,46	94,72
592,65	107,01
592,85	82,94
593,04	71,68
593,24	90,62
593,43	99,84
593,63	67,58
593,82	128,00
594,02	136,70
594,21	139,77
594,41	153,09
594,60	36,35
594,80	59,39
594,99	123,39
595,19	139,26
595,38	115,20
595,58	105,47
595,77	143,36
595,97	116,73
596,16	55,30
596,36	96,77
596,55	81,41
596,75	129,53
596,94	-23,55
597,14	78,33
597,33	107,52
597,53	61,44
597,72	125,95
597,92	68,09
598,11	172,54
598,31	128,00
598,50	109,57
598,70	100,86
598,89	32,26
599,09	142,33
599,28	103,42
599,48	48,13
599,67	170,49
599,87	146,43
600,06	117,25
600,26	41,98
600,45	114,17
600,64	33,28
600,84	113,15
601,03	80,38
601,23	58,37
601,42	80,38
601,62	180,73
601,81	37,38
602,01	99,33
602,20	62,46
602,40	121,85
602,59	32,77
602,78	91,65
602,98	124,93
603,17	47,10
603,37	123,39
603,56	168,45
603,76	101,89
603,95	105,47
604,15	85,50
604,34	70,14
604,53	17,92
604,73	51,71
604,92	0,00
605,12	177,66
605,31	132,61
605,51	107,01
605,70	100,86
605,89	86,01
606,09	73,73
606,28	72,19
606,48	144,38
606,67	102,91
606,87	98,81
607,06	18,94
607,25	74,75
607,45	144,89
607,64	49,66
607,84	101,37
608,03	178,69
608,22	93,18
608,42	54,27
608,61	41,98
608,81	129,53
609,00	124,93
609,19	137,21
609,39	91,13
609,58	113,66
609,78	183,81
609,97	126,97
610,16	86,53
610,36	135,68
610,55	53,25
610,75	52,74
610,94	53,76
611,13	45,57
611,33	89,60
611,52	21,50
611,71	101,37
611,91	112,13
612,10	33,28
612,30	182,27
612,49	101,37
612,68	19,46
612,88	37,38
613,07	45,06
613,26	81,41
613,46	101,89
613,65	61,95
613,84	193,02
614,04	92,67
614,23	71,68
614,43	135,68
614,62	130,05
614,81	120,83
615,01	110,08
615,20	86,01
615,39	77,31
615,59	132,09
615,78	21,50
615,97	91,65
616,17	130,05
616,36	172,03
616,55	134,65
616,75	18,94
616,94	91,65
617,13	81,92
617,33	104,45
617,52	122,37
617,71	103,42
617,91	71,68
618,10	197,12
618,29	75,26
618,49	32,26
618,68	151,55
618,87	93,69
619,07	128,00
619,26	48,13
619,45	112,13
619,65	135,68
619,84	86,53
620,03	73,73
620,22	60,93
620,42	73,73
620,61	122,37
620,80	33,79
621,00	146,43
621,19	128,00
621,38	125,44
621,58	-49,66
621,77	103,42
621,96	117,76
622,15	94,21
622,35	151,55
622,54	74,75
622,73	36,35
622,93	41,98
623,12	46,08
623,31	65,54
623,50	63,49
623,70	137,73
623,89	12,80
624,08	83,45
624,28	54,27
624,47	43,01
624,66	69,12
624,85	130,05
625,05	22,02
625,24	25,60
625,43	70,65
625,62	65,54
625,82	114,69
626,01	66,05
626,20	52,74
626,39	113,15
626,59	120,32
626,78	96,77
626,97	172,54
627,17	70,14
627,36	89,60
627,55	53,25
627,74	36,86
627,93	138,75
628,13	102,40
628,32	82,43
628,51	114,69
628,70	45,57
628,90	20,48
629,09	45,06
629,28	88,57
629,47	158,72
629,67	73,21
629,86	19,46
630,05	184,32
630,24	100,35
630,44	37,38
630,63	113,15
630,82	101,89
631,01	79,36
631,20	141,31
631,40	60,42
631,59	96,77
631,78	73,73
631,97	60,93
632,16	117,76
632,36	82,43
632,55	31,23
632,74	76,80
632,93	-9,73
633,13	58,88
633,32	93,69
633,51	107,52
633,70	125,95
633,89	68,09
634,09	62,98
634,28	55,81
634,47	114,69
634,66	34,30
634,85	64,51
635,04	124,93
635,24	68,09
635,43	70,65
635,62	26,62
635,81	75,77
636,00	48,13
636,20	102,91
636,39	55,30
636,58	74,75
636,77	71,17
636,96	41,98
637,15	41,98
637,35	65,54
637,54	96,25
637,73	117,25
637,92	116,22
638,11	134,14
638,30	28,67
638,50	102,91
638,69	94,72
638,88	92,67
639,07	93,18
639,26	56,83
639,45	126,46
639,64	52,74
639,84	61,95
640,03	55,30
640,22	28,16
640,41	152,06
640,60	98,30
640,79	128,00
640,98	102,91
641,18	33,79
641,37	141,31
641,56	128,00
641,75	82,43
641,94	126,97
642,13	84,99
642,32	31,23
642,52	31,74
642,71	79,36
642,90	146,43
643,09	77,82
643,28	80,89
643,47	27,65
643,66	64,51
643,85	32,77
644,04	95,74
644,24	68,61
644,43	59,39
644,62	-18,43
644,81	33,79
645,00	86,01
645,19	55,81
645,38	60,93
645,57	88,06
645,76	38,91
645,96	102,91
646,15	53,76
646,34	35,33
646,53	1,02
646,72	93,18
646,91	105,47
647,10	86,01
647,29	92,16
647,48	107,52
647,67	136,70
647,86	142,85
648,05	31,23
648,25	157,18
648,44	77,31
648,63	133,12
648,82	137,21
649,01	60,42
649,20	66,56
649,39	121,34
649,58	97,79
649,77	-6,14
649,96	58,88
650,15	88,57
650,34	-6,66
650,53	109,57
650,72	149,50
650,91	88,57
651,11	110,08
651,30	136,19
651,49	14,34
651,68	77,31
651,87	82,94
652,06	108,54
652,25	60,93
652,44	95,74
652,63	14,34
652,82	107,01
653,01	83,97
653,20	67,07
653,39	111,10
653,58	65,54
653,77	72,19
653,96	14,85
654,15	111,61
654,34	97,28
654,53	3,58
654,72	126,97
654,91	89,09
655,10	83,97
655,29	24,06
655,48	171,52
655,67	45,57
655,86	17,92
656,05	91,65
656,24	15,36
656,43	109,05
656,62	64,00
656,81	102,91
657,00	98,81
657,19	135,17
657,38	50,69
657,57	98,81
657,76	100,86
657,95	32,26
658,14	101,89
658,33	35,84
658,52	17,92
658,71	85,50
658,90	54,78
659,09	93,18
659,28	22,02
659,47	-3,07
659,66	31,23
659,85	78,85
660,04	73,21
660,23	141,31
660,42	24,06
660,61	66,05
660,80	129,02
660,99	84,48
661,18	83,45
661,37	55,81
661,56	104,45
661,75	132,61
661,94	74,24
662,13	66,05
662,32	28,67
662,51	87,04
662,70	183,29
662,89	-23,55
663,08	76,80
663,27	114,69
663,46	29,70
663,65	48,13
663,83	135,68
664,02	61,44
664,21	89,60
664,40	111,10
664,59	69,63
664,78	75,77
664,97	91,13
665,16	-31,23
665,35	130,56
665,54	132,09
665,73	85,50
665,92	101,89
666,11	2,05
666,30	83,45
666,49	71,68
666,67	82,94
666,86	52,22
667,05	81,41
667,24	133,63
667,43	-3,07
667,62	92,16
667,81	-6,14
668,00	61,44
668,19	34,82
668,38	97,28
668,57	78,33
668,76	124,41
668,94	-16,90
669,13	123,39
669,32	98,30
669,51	47,62
669,70	125,44
669,89	21,50
670,08	89,60
670,27	48,64
670,46	123,90
670,64	15,87
670,83	110,59
671,02	33,28
671,21	56,83
671,40	68,61
671,59	84,99
671,78	27,14
671,97	38,40
672,16	30,72
672,34	82,94
672,53	137,21
672,72	68,61
672,91	118,27
673,10	121,85
673,29	117,76
673,48	37,38
673,66	52,22
673,85	122,37
674,04	156,67
674,23	82,43
674,42	35,84
674,61	98,30
674,80	126,97
674,98	25,60
675,17	102,91
675,36	24,58
675,55	77,82
675,74	20,99
675,93	127,49
676,12	64,00
676,30	125,44
676,49	72,70
676,68	96,77
676,87	83,45
677,06	94,21
677,25	117,76
677,43	60,42
677,62	93,18
677,81	119,81
678,00	99,84
678,19	66,05
678,37	105,98
678,56	90,11
678,75	28,67
678,94	79,36
679,13	58,88
679,32	34,30
679,50	118,78
679,69	113,15
679,88	64,51
680,07	118,27
680,26	99,33
680,44	136,19
680,63	57,34
680,82	43,52
681,01	30,72
681,20	108,03
681,38	106,49
681,57	54,78
681,76	92,16
681,95	89,09
682,14	62,46
682,32	22,53
682,51	66,56
682,70	71,68
682,89	36,86
683,07	32,26
683,26	64,00
683,45	40,45
683,64	95,74
683,83	47,62
684,01	34,30
684,20	56,32
684,39	76,80
684,58	-26,62
684,76	70,14
684,95	47,10
685,14	11,78
685,33	62,46
685,52	104,45
685,70	113,66
685,89	34,82
686,08	99,33
686,27	-48,64
686,45	41,98
686,64	95,74
686,83	102,91
687,02	73,21
687,20	104,96
687,39	25,60
687,58	63,49
687,76	-14,34
687,95	87,04
688,14	90,11
688,33	155,65
688,51	140,80
688,70	80,38
688,89	93,18
689,08	99,84
689,26	77,31
689,45	61,95
689,64	113,15
689,83	61,44
690,01	10,75
690,20	156,16
690,39	101,89
690,57	119,81
690,76	70,14
690,95	101,89
691,14	79,36
691,32	95,23
691,51	83,97
691,70	214,01
691,88	101,89
692,07	121,34
692,26	37,38
692,44	121,34
692,63	114,17
692,82	69,12
693,01	66,56
693,19	29,70
693,38	99,84
693,57	68,09
693,75	34,82
693,94	78,33
694,13	-21,50
694,31	64,00
694,50	46,59
694,69	112,13
694,87	70,14
695,06	40,45
695,25	-24,06
695,43	123,90
695,62	19,97
695,81	10,75
695,99	99,84
696,18	40,96
696,37	56,83
696,55	84,48
696,74	115,71
696,93	212,48
697,11	138,24
697,30	84,99
697,49	5,63
697,67	122,88
697,86	83,97
698,05	65,02
698,23	44,54
698,42	112,13
698,61	71,17
698,79	27,65
698,98	70,65
699,17	78,85
699,35	64,51
699,54	108,03
699,72	68,09
699,91	86,53
700,10	39,42
700,28	90,62
700,47	88,06
700,66	-0,51
700,84	166,40
701,03	125,95
701,21	136,19
701,40	99,33
701,59	48,13
701,77	116,22
701,96	148,48
702,15	173,57
702,33	82,94
702,52	107,01
702,70	42,50
702,89	133,12
703,08	35,33
703,26	58,88
703,45	35,84
703,63	134,65
703,82	44,03
704,01	140,29
704,19	132,09
704,38	88,06
704,56	118,27
704,75	129,53
704,94	121,85
705,12	107,01
705,31	121,85
705,49	94,72
705,68	34,30
705,86	103,93
706,05	75,77
706,24	75,26
706,42	112,64
706,61	28,16
706,79	44,54
706,98	32,77
707,17	100,35
707,35	83,45
707,54	14,85
707,72	44,54
707,91	63,49
708,09	67,58
708,28	118,78
708,46	63,49
708,65	111,10
708,84	126,46
709,02	72,70
709,21	110,08
709,39	67,58
709,58	105,47
709,76	-31,74
709,95	103,42
710,13	49,15
710,32	77,82
710,50	90,11
710,69	122,37
710,88	51,20
711,06	84,99
711,25	73,21
711,43	68,09
711,62	87,04
711,80	48,13
711,99	-24,58
712,17	45,57
712,36	108,03
712,54	59,90
712,73	84,99
712,91	144,38
713,10	147,97
713,28	128,51
713,47	75,26
713,65	95,23
713,84	105,47
714,02	125,95
714,21	101,89
714,39	136,70
714,58	58,88
714,76	115,71
714,95	135,68
715,13	30,21
715,32	58,37
715,50	24,58
715,69	205,82
715,87	94,72
716,06	95,23
716,24	14,85
716,43	121,85
716,61	92,16
716,80	117,76
716,98	-17,41
717,17	145,92
717,35	173,05
717,54	48,13
717,72	-11,26
717,91	67,07
718,09	17,92
718,28	55,30
718,46	77,31
718,65	56,32
718,83	54,78
719,01	83,97
719,20	67,07
719,38	77,82
719,57	129,02
719,75	16,90
719,94	42,50
720,12	80,89
720,31	95,74
720,49	33,28
720,68	100,86
720,86	103,42
721,04	82,43
721,23	80,89
721,41	52,74
721,60	126,46
721,78	118,78
721,97	80,38
722,15	107,52
722,34	159,74
722,52	150,01
722,70	80,89
722,89	68,61
723,07	82,94
723,26	119,29
723,44	62,46
723,63	82,94
723,81	57,34
723,99	82,43
724,18	60,42
724,36	85,50
724,55	148,99
724,73	68,09
724,91	20,48
725,10	147,45
725,28	64,51
725,47	200,19
725,65	102,40
725,83	120,32
726,02	78,33
726,20	151,04
726,39	12,29
726,57	91,65
726,75	-23,04
726,94	70,65
727,12	177,66
727,31	76,80
727,49	54,78
727,67	145,92
727,86	91,65
728,04	56,32
728,23	127,49
728,41	36,86
728,59	67,58
728,78	146,94
728,96	87,55
729,14	135,68
729,33	26,11
729,51	80,89
729,69	111,10
729,88	61,95
730,06	72,70
730,25	100,86
730,43	188,41
730,61	166,91
730,80	111,61
730,98	125,95
731,16	104,45
731,35	105,98
731,53	92,16
731,71	104,96
731,90	90,62
732,08	82,94
732,26	43,01
732,45	33,28
732,63	88,06
732,81	61,95
733,00	78,33
733,18	132,61
733,36	124,41
733,55	153,60
733,73	141,82
733,91	16,90
734,10	75,26
734,28	92,16
734,46	64,00
734,65	133,63
734,83	133,12
735,01	66,56
735,20	143,36
735,38	-8,70
735,56	46,59
735,75	121,85
735,93	15,36
736,11	164,86
736,30	84,48
736,48	92,16
736,66	94,72
736,84	144,89
737,03	96,77
737,21	59,39
737,39	0,00
737,58	189,95
737,76	-18,94
737,94	45,57
738,12	104,96
738,31	105,47
738,49	72,19
738,67	-0,51
738,86	101,89
739,04	62,46
739,22	170,49
739,40	131,07
739,59	5,63
739,77	65,02
739,95	113,66
740,14	37,38
740,32	99,84
740,50	147,97
740,68	38,91
740,87	77,31
741,05	169,98
741,23	128,51
741,41	46,59
741,60	123,90
741,78	150,01
741,96	197,63
742,14	21,50
742,33	73,73
742,51	83,45
742,69	100,35
742,87	35,84
743,06	76,80
743,24	37,38
743,42	152,57
743,60	65,02
743,79	76,80
743,97	105,98
744,15	91,13
744,33	67,58
744,52	-12,29
744,70	60,93
744,88	82,94
745,06	133,63
745,24	62,46
745,43	103,42
745,61	89,09
745,79	53,25
745,97	110,59
746,16	172,03
746,34	158,21
746,52	175,61
746,70	31,23
746,88	135,17
747,07	72,70
747,25	57,34
747,43	103,42
747,61	130,56
747,79	149,50
747,98	63,49
748,16	118,27
748,34	98,81
748,52	-7,68
748,70	3,07
748,89	133,63
749,07	54,78
749,25	95,23
749,43	74,24
749,61	125,95
749,79	174,08
749,98	136,70
750,16	76,80
750,34	93,18
750,52	115,71
750,70	129,02
750,88	101,89
751,07	168,96
751,25	6,14
751,43	60,42
751,61	1,02
751,79	69,12
751,97	152,57
752,16	80,89
752,34	39,94
752,52	64,00
752,70	128,51
752,88	86,01
753,06	152,06
753,25	30,72
753,43	100,35
753,61	102,91
753,79	-18,43
753,97	92,67
754,15	47,10
754,33	113,15
754,52	141,31
754,70	3,07
754,88	84,99
755,06	114,17
755,24	137,21
755,42	99,33
755,60	73,73
755,78	120,83
755,97	138,75
756,15	61,44
756,33	40,45
756,51	106,49
756,69	66,56
756,87	68,61
757,05	90,62
757,23	27,14
757,41	122,37
757,60	14,34
757,78	92,67
757,96	52,22
758,14	39,42
758,32	12,29
758,50	128,51
758,68	106,49
758,86	136,19
759,04	126,97
759,22	112,64
759,41	46,59
759,59	60,93
759,77	186,88
759,95	-12,29
760,13	69,12
760,31	165,89
760,49	116,22
760,67	32,26
760,85	18,43
761,03	145,41
761,21	97,28
761,39	92,16
761,57	111,61
761,76	115,71
761,94	158,21
762,12	134,14
762,30	125,95
762,48	133,12
762,66	105,98
762,84	133,12
763,02	75,26
763,20	113,66
763,38	94,72
763,56	75,26
763,74	94,72
763,92	79,36
764,10	181,25
764,28	113,15
764,46	99,84
764,64	155,65
764,82	142,85
765,00	81,41
765,19	39,42
765,37	89,60
765,55	31,74
765,73	63,49
765,91	105,47
766,09	73,73
766,27	129,02
766,45	53,25
766,63	60,93
766,81	108,54
766,99	101,37
767,17	22,02
767,35	52,22
767,53	138,24
767,71	125,44
767,89	91,13
768,07	122,88
768,25	90,11
768,43	117,25
768,61	63,49
768,79	113,15
768,97	92,16
769,15	84,48
769,33	59,39
769,51	86,01
769,69	66,05
769,87	103,42
770,05	98,30
770,23	121,34
770,41	87,55
770,59	45,57
770,77	34,30
770,95	104,45
771,13	44,54
771,31	59,39
771,49	38,91
771,67	75,77
771,85	135,17
772,03	102,40
772,21	81,41
772,38	90,11
772,56	93,18
772,74	104,45
772,92	62,46
773,10	115,20
773,28	100,86
773,46	13,31
773,64	122,37
773,82	83,97
774,00	111,61
774,18	123,39
774,36	65,02
774,54	101,37
774,72	86,53
774,90	16,38
775,08	61,44
775,26	204,80
775,44	90,62
775,62	48,13
775,80	70,14
775,97	102,40
776,15	135,17
776,33	122,88
776,51	73,21
776,69	132,61
776,87	136,19
777,05	119,29
777,23	171,52
777,41	-5,63
777,59	25,09
777,77	56,32
777,95	133,12
778,13	74,75
778,30	110,59
778,48	175,61
778,66	134,65
778,84	14,85
779,02	122,37
779,20	70,14
779,38	193,53
779,56	117,76
779,74	98,81
779,92	27,14
780,09	114,69
780,27	100,35
780,45	20,48
780,63	125,95
780,81	117,25
780,99	108,54
781,17	111,10
781,35	84,99
781,52	99,33
781,70	99,84
781,88	108,54
782,06	165,37
782,24	118,78
782,42	117,76
782,60	130,05
782,78	56,83
782,95	153,60
783,13	142,33
783,31	104,45
783,49	85,50
783,67	79,36
783,85	124,93
784,03	69,12
784,20	55,30
784,38	143,36
784,56	80,89
784,74	85,50
784,92	80,89
785,10	95,74
785,28	146,43
785,45	167,42
785,63	103,93
785,81	61,44
785,99	90,62
786,17	113,15
786,35	72,70
786,52	68,09
786,70	87,55
786,88	43,52
787,06	78,85
787,24	129,53
787,41	99,33
787,59	99,84
787,77	61,95
787,95	52,22
788,13	94,21
788,31	65,02
788,48	97,28
788,66	71,17
788,84	76,29
789,02	104,45
789,20	90,62
789,37	59,90
789,55	209,40
789,73	97,79
789,91	142,33
790,09	84,48
790,26	66,56
790,44	117,25
790,62	78,33
790,80	146,94
790,98	106,49
791,15	122,88
791,33	115,20
791,51	89,60
791,69	41,98
791,86	155,13
792,04	122,88
792,22	68,09
792,40	54,27
792,58	53,76
792,75	98,30
792,93	183,29
793,11	76,80
793,29	79,87
793,46	92,16
793,64	140,29
793,82	79,87
794,00	66,56
794,17	147,97
794,35	37,89
794,53	118,78
794,71	67,58
794,88	50,18
795,06	36,35
795,24	154,11
795,42	122,88
795,59	32,77
795,77	134,65
795,95	44,54
796,13	72,19
796,30	65,02
796,48	89,60
796,66	144,38
796,83	167,93
797,01	85,50
797,19	28,67
797,37	140,80
797,54	92,16
797,72	74,24
797,90	174,59
798,08	-9,73
798,25	33,28
798,43	133,12
798,61	79,36
798,78	136,70
798,96	116,73
799,14	48,13
799,31	111,10
799,49	82,94
799,67	53,25
799,85	150,53
800,02	119,81
800,20	26,11
800,38	4,61
800,55	87,04
800,73	46,08
800,91	115,20
801,08	79,36
801,26	150,53
801,44	105,98
801,61	156,16
801,79	83,45
801,97	102,91
802,15	64,00
802,32	19,97
802,50	128,00
802,68	138,75
802,85	147,97
803,03	154,62
803,21	116,22
803,38	113,66
803,56	95,23
803,74	24,06
803,91	119,29
804,09	82,94
804,26	126,97
804,44	114,69
804,62	137,73
804,79	136,70
804,97	66,56
805,15	97,28
805,32	82,94
805,50	110,08
805,68	81,41
805,85	66,05
806,03	62,46
806,21	99,84
806,38	13,82
806,56	116,73
806,73	122,88
806,91	136,70
807,09	89,09
807,26	76,80
807,44	150,53
807,62	119,81
807,79	127,49
807,97	118,27
808,14	96,77
808,32	160,77
808,50	70,65
808,67	50,69
808,85	132,61
809,02	143,87
809,20	75,26
809,38	92,67
809,55	1,54
809,73	127,49
809,90	143,87
810,08	121,34
810,26	156,67
810,43	143,36
810,61	140,29
810,78	91,65
810,96	68,09
811,14	43,01
811,31	59,90
811,49	12,29
811,66	80,38
811,84	36,35
812,02	66,05
812,19	127,49
812,37	69,63
812,54	159,74
812,72	153,60
812,89	152,57
813,07	110,08
813,25	179,71
813,42	147,45
813,60	145,92
813,77	189,44
813,95	111,10
814,12	0,00
814,30	91,13
814,47	118,78
814,65	83,97
814,83	133,63
815,00	112,64
815,18	157,18
815,35	79,87
815,53	178,17
815,70	71,68
815,88	155,13
816,05	101,37
816,23	72,19
816,40	148,99
816,58	92,67
816,75	60,42
816,93	121,85
817,10	149,50
817,28	107,01
817,46	55,81
817,63	96,77
817,81	114,69
817,98	-6,14
818,16	51,20
818,33	75,77
818,51	52,22
818,68	101,89
818,86	216,06
819,03	192,51
819,21	96,77
819,38	114,69
819,56	92,67
819,73	64,51
819,91	109,57
820,08	122,37
820,26	75,77
820,43	208,89
820,61	58,37
820,78	42,50
820,96	55,30
821,13	113,15
821,31	144,38
821,48	76,80
821,66	89,09
821,83	122,37
822,00	35,33
822,18	92,67
822,35	65,54
822,53	150,01
822,70	92,16
822,88	173,05
823,05	93,18
823,23	89,09
823,40	12,80
823,58	114,17
823,75	39,42
823,93	76,29
824,10	53,76
824,28	55,30
824,45	116,73
824,62	29,18
824,80	139,26
824,97	109,05
825,15	77,31
825,32	109,05
825,50	81,41
825,67	115,71
825,85	182,27
826,02	61,95
826,19	93,18
826,37	169,47
826,54	92,67
826,72	75,77
826,89	79,87
827,07	51,20
827,24	122,88
827,41	88,57
827,59	108,54
827,76	53,25
827,94	55,30
828,11	187,90
828,28	41,47
828,46	109,57
828,63	91,65
828,81	73,21
828,98	88,57
829,15	202,75
829,33	93,18
829,50	74,75
829,68	75,77
829,85	71,68
830,02	147,45
830,20	84,99
830,37	120,83
830,55	123,90
830,72	98,30
830,89	37,89
831,07	34,30
831,24	177,15
831,42	87,55
831,59	56,83
831,76	51,71
831,94	80,89
832,11	133,12
832,28	153,60
832,46	57,86
832,63	96,25
832,81	114,17
832,98	101,37
833,15	103,42
833,33	84,99
833,50	137,73
833,67	124,93
833,85	94,72
834,02	137,21
834,19	69,12
834,37	116,73
834,54	152,06
834,71	64,51
834,89	104,45
835,06	79,36
835,23	39,42
835,41	87,04
835,58	122,37
835,75	66,56
835,93	87,55
836,10	79,87
836,27	56,83
836,45	230,40
836,62	114,69
836,79	152,06
836,97	96,25
837,14	182,78
837,31	61,44
837,49	86,53
837,66	85,50
837,83	74,75
838,01	80,89
838,18	114,69
838,35	63,49
838,53	128,00
838,70	62,46
838,87	114,69
839,04	36,35
839,22	256,00
839,39	47,10
839,56	112,64
839,74	105,98
839,91	100,86
840,08	91,13
840,26	115,20
840,43	77,31
840,60	91,13
840,77	83,45
840,95	132,09
841,12	90,62
841,29	107,01
841,46	113,15
841,64	81,92
841,81	118,27
841,98	50,18
842,16	112,13
842,33	100,86
842,50	136,70
842,67	14,85
842,85	56,83
843,02	129,53
843,19	104,45
843,36	119,29
843,54	122,37
843,71	154,62
843,88	81,92
844,05	66,05
844,23	108,54
844,40	78,85
844,57	74,24
844,74	131,58
844,92	112,64
845,09	41,98
845,26	94,72
845,43	24,58
845,61	64,00
845,78	188,93
845,95	107,01
846,12	179,71
846,29	120,32
846,47	199,68
846,64	75,77
846,81	15,87
846,98	-12,29
847,16	58,37
847,33	126,46
847,50	92,16
847,67	66,56
847,84	130,56
848,02	69,63
848,19	61,44
848,36	103,42
848,53	84,48
848,70	96,25
848,88	72,70
849,05	99,33
849,22	87,04
849,39	99,84
849,56	-8,70
849,74	51,71
849,91	101,89
850,08	97,79
850,25	75,26
850,42	122,37
850,60	90,11
850,77	93,18
850,94	134,14
851,11	123,90
851,28	100,35
851,45	121,85
851,63	148,99
851,80	143,36
851,97	64,51
852,14	173,57
852,31	120,83
852,48	101,89
852,66	53,76
852,83	143,36
853,00	104,96
853,17	67,58
853,34	113,66
853,51	135,17
853,68	103,42
853,86	126,97
854,03	102,40
854,20	90,11
854,37	28,67
854,54	207,87
854,71	69,63
854,88	137,21
855,06	109,05
855,23	123,90
855,40	85,50
855,57	14,85
855,74	97,79
855,91	133,63
856,08	81,41
856,25	157,69
856,43	44,54
856,60	90,62
856,77	159,74
856,94	92,67
857,11	105,47
857,28	109,05
857,45	157,69
857,62	68,09
857,79	125,95
857,97	150,01
858,14	72,70
858,31	198,65
858,48	99,84
858,65	75,77
858,82	57,34
858,99	72,19
859,16	20,48
859,33	0,00
859,50	79,36
859,67	39,94
859,85	133,12
860,02	-17,41
860,19	118,78
860,36	78,33
860,53	145,92
860,70	113,66
860,87	119,81
861,04	191,49
861,21	131,07
861,38	172,54
861,55	63,49
861,72	125,95
861,89	107,52
862,06	95,23
862,23	96,25
862,41	112,64
862,58	108,03
862,75	118,78
862,92	125,95
863,09	36,35
863,26	86,01
863,43	96,77
863,60	158,21
863,77	117,76
863,94	60,42
864,11	164,86
864,28	54,78
864,45	37,89
864,62	190,46
864,79	134,65
864,96	117,76
865,13	179,71
865,30	94,21
865,47	163,84
865,64	-10,24
865,81	99,84
865,98	185,85
866,15	84,99
866,32	193,53
866,49	108,54
866,66	159,23
866,83	77,31
867,00	94,21
867,17	131,07
867,34	-9,22
867,51	169,47
867,68	43,52
867,85	183,29
868,02	108,03
868,19	96,77
868,36	130,56
868,53	124,41
868,70	90,11
868,87	40,96
869,04	217,08
869,21	123,90
869,38	115,20
869,55	69,12
869,72	177,66
869,89	67,58
870,06	116,22
870,23	73,73
870,40	71,68
870,57	92,67
870,74	27,14
870,91	158,72
871,08	54,27
871,25	108,03
871,42	145,41
871,59	146,43
871,76	74,75
871,93	84,99
872,10	72,70
872,27	204,28
872,44	41,47
872,60	57,86
872,77	133,63
872,94	57,86
873,11	123,90
873,28	123,39
873,45	83,45
873,62	145,92
873,79	100,86
873,96	47,62
874,13	90,11
874,30	10,24
874,47	139,77
874,64	126,97
874,81	38,40
874,97	95,23
875,14	102,91
875,31	27,14
875,48	148,48
875,65	98,81
875,82	96,25
875,99	135,68
876,16	187,90
876,33	170,49
876,50	119,29
876,67	103,93
876,83	85,50
877,00	50,69
877,17	186,37
877,34	18,43
877,51	139,77
877,68	123,39
877,85	4,10
878,02	38,91
878,19	100,86
878,35	62,98
878,52	124,41
878,69	78,85
878,86	43,52
879,03	40,96
879,20	183,29
879,37	115,71
879,54	93,69
879,70	129,53
879,87	82,43
880,04	111,61
880,21	95,23
880,38	134,65
880,55	123,39
880,72	102,40
880,89	7,68
881,05	131,58
881,22	75,77
881,39	49,15
881,56	143,36
881,73	51,20
881,90	129,53
882,06	83,97
882,23	9,22
882,40	66,56
882,57	141,82
882,74	100,86
882,91	110,08
883,07	30,72
883,24	205,31
883,41	71,68
883,58	91,13
883,75	92,16
883,92	35,33
884,08	106,49
884,25	56,83
884,42	69,12
884,59	111,61
884,76	136,19
884,92	74,75
885,09	131,07
885,26	120,32
885,43	112,13
885,60	115,20
885,76	115,20
885,93	59,39
886,10	153,09
886,27	141,31
886,44	146,94
886,60	217,60
886,77	104,45
886,94	55,30
887,11	49,15
887,28	116,73
887,44	138,75
887,61	124,93
887,78	105,98
887,95	92,16
888,12	116,73
888,28	104,45
888,45	88,06
888,62	105,47
888,79	94,21
888,95	48,13
889,12	84,99
889,29	138,24
889,46	86,01
889,62	186,37
889,79	185,34
889,96	92,16
890,13	117,76
890,29	99,33
890,46	93,69
890,63	58,88
890,80	110,59
890,96	81,41
891,13	97,28
891,30	108,54
891,47	55,30
891,63	235,52
891,80	142,85
891,97	139,26
892,14	95,23
892,30	91,13
892,47	146,94
892,64	134,14
892,80	121,34
892,97	49,66
893,14	82,94
893,31	139,77
893,47	39,42
893,64	141,82
893,81	152,06
893,97	115,20
894,14	116,73
>>>>>End Processed Spectral Data<<<<<
