SpectraSuite Datei
++++++++++++++++++++++++++++++++++++
Datum: Mon Dec 11 15:14:50 CET 2017
Benutzer: Praktikum-Pc1
Dark-Spektrum vorhanden: Ja
Referenz-Spektrum vorhanden: Nein
Zahl der probierten Teilspektren: 1
Spektrometer: USB4H10187
Integrationszeit (usec): 150000 (USB4H10187)
Spektren Durchschnitt berechnet: 4 (USB4H10187)
Boxcar Glättung: 0 (USB4H10187)
Dunkelstromkorrektur: Nein (USB4H10187)
Puls/Lampe aktiviert: Nein (USB4H10187)
Correct for Detector Non-linearity: Nein (USB4H10187)
Streulichtkorrektur: Nein (USB4H10187)
Anzahl Pixel in verarbeitetem Spektrum: 3648
>>>>>Begin Processed Spectral Data<<<<<
176,80	-48,64
177,02	-48,64
177,24	-48,64
177,46	21,50
177,68	21,50
177,91	144,38
178,13	173,05
178,35	104,45
178,57	70,65
178,79	170,49
179,02	202,75
179,24	85,50
179,46	161,28
179,68	47,62
179,90	53,76
180,12	160,77
180,35	109,05
180,57	75,77
180,79	124,41
181,01	76,29
181,23	76,29
181,46	96,77
181,68	134,65
181,90	116,22
182,12	171,52
182,34	154,62
182,56	94,21
182,79	57,34
183,01	81,41
183,23	110,59
183,45	142,33
183,67	75,26
183,89	133,12
184,12	107,52
184,34	93,69
184,56	159,74
184,78	105,47
185,00	186,37
185,22	65,02
185,45	60,93
185,67	122,37
185,89	131,58
186,11	119,81
186,33	151,55
186,55	176,13
186,77	114,69
187,00	145,41
187,22	140,80
187,44	77,82
187,66	64,51
187,88	70,14
188,10	235,52
188,32	68,61
188,55	125,95
188,77	139,77
188,99	84,48
189,21	142,33
189,43	139,77
189,65	79,87
189,87	119,81
190,10	229,37
190,32	165,37
190,54	122,37
190,76	145,92
190,98	110,08
191,20	209,40
191,42	111,10
191,64	74,75
191,87	111,10
192,09	131,58
192,31	96,77
192,53	129,02
192,75	98,81
192,97	125,44
193,19	105,47
193,41	46,59
193,64	146,43
193,86	97,79
194,08	123,90
194,30	70,65
194,52	108,54
194,74	136,19
194,96	-1,02
195,18	138,24
195,40	67,58
195,63	104,45
195,85	45,06
196,07	57,86
196,29	140,29
196,51	115,71
196,73	111,61
196,95	129,53
197,17	65,53
197,39	86,01
197,61	171,52
197,84	110,08
198,06	68,61
198,28	57,86
198,50	-10,24
198,72	139,26
198,94	143,87
199,16	102,40
199,38	185,85
199,60	18,94
199,82	67,07
200,04	148,48
200,26	118,27
200,49	74,24
200,71	46,59
200,93	142,33
201,15	69,63
201,37	39,94
201,59	118,27
201,81	118,78
202,03	182,27
202,25	52,22
202,47	113,15
202,69	59,39
202,91	91,13
203,13	80,89
203,35	77,31
203,58	24,58
203,80	177,15
204,02	60,93
204,24	-9,73
204,46	91,65
204,68	114,17
204,90	82,43
205,12	134,14
205,34	70,65
205,56	164,86
205,78	137,73
206,00	107,52
206,22	64,51
206,44	110,59
206,66	69,12
206,88	153,09
207,10	34,30
207,32	190,97
207,54	130,05
207,76	95,23
207,99	95,74
208,21	69,63
208,43	116,22
208,65	60,42
208,87	108,03
209,09	119,81
209,31	78,33
209,53	71,17
209,75	195,07
209,97	137,73
210,19	67,58
210,41	99,33
210,63	74,75
210,85	100,86
211,07	136,70
211,29	95,74
211,51	151,04
211,73	203,77
211,95	126,46
212,17	93,18
212,39	111,10
212,61	126,97
212,83	67,07
213,05	129,53
213,27	153,60
213,49	118,27
213,71	99,33
213,93	150,53
214,15	187,90
214,37	165,89
214,59	110,59
214,81	77,31
215,03	59,90
215,25	106,49
215,47	127,49
215,69	110,08
215,91	131,58
216,13	87,55
216,35	113,66
216,57	77,82
216,79	176,13
217,01	137,21
217,23	72,70
217,45	157,18
217,67	162,30
217,89	193,02
218,11	125,95
218,33	118,78
218,55	106,49
218,77	145,41
218,99	68,09
219,21	153,09
219,43	102,40
219,65	185,34
219,87	185,85
220,09	71,68
220,31	68,09
220,53	104,45
220,75	84,99
220,97	47,62
221,19	69,12
221,41	44,54
221,63	52,74
221,85	123,90
222,06	112,13
222,28	112,13
222,50	94,72
222,72	113,66
222,94	56,83
223,16	126,46
223,38	151,04
223,60	20,99
223,82	105,98
224,04	169,98
224,26	114,17
224,48	119,29
224,70	131,58
224,92	61,95
225,14	98,81
225,36	156,67
225,58	78,85
225,80	171,01
226,02	127,49
226,24	107,52
226,45	78,33
226,67	56,83
226,89	12,80
227,11	96,25
227,33	120,83
227,55	43,01
227,77	97,28
227,99	66,56
228,21	73,21
228,43	91,13
228,65	79,87
228,87	116,73
229,09	-20,48
229,31	57,86
229,52	42,50
229,74	-12,29
229,96	159,74
230,18	92,67
230,40	111,61
230,62	81,92
230,84	183,29
231,06	-26,11
231,28	63,49
231,50	24,58
231,72	70,65
231,94	92,67
232,15	73,21
232,37	55,30
232,59	40,45
232,81	174,59
233,03	65,02
233,25	122,88
233,47	87,04
233,69	74,24
233,91	60,42
234,13	25,60
234,34	64,00
234,56	91,13
234,78	161,79
235,00	-27,65
235,22	51,71
235,44	49,66
235,66	73,21
235,88	78,85
236,10	156,67
236,31	118,27
236,53	95,74
236,75	97,79
236,97	77,82
237,19	142,33
237,41	110,59
237,63	147,97
237,85	128,51
238,07	125,44
238,28	31,74
238,50	113,15
238,72	92,67
238,94	121,85
239,16	93,18
239,38	110,59
239,60	145,92
239,81	51,20
240,03	78,33
240,25	63,49
240,47	126,97
240,69	86,53
240,91	93,69
241,13	213,50
241,34	122,37
241,56	103,42
241,78	116,22
242,00	82,43
242,22	53,25
242,44	137,73
242,66	88,57
242,87	66,05
243,09	129,53
243,31	45,57
243,53	47,10
243,75	111,61
243,97	64,51
244,19	100,86
244,40	145,92
244,62	112,13
244,84	201,72
245,06	107,52
245,28	71,68
245,50	122,88
245,71	120,83
245,93	58,37
246,15	116,22
246,37	129,53
246,59	173,05
246,81	49,66
247,02	87,55
247,24	152,57
247,46	91,65
247,68	101,89
247,90	126,97
248,11	75,26
248,33	77,31
248,55	153,60
248,77	28,16
248,99	161,28
249,21	31,23
249,42	110,08
249,64	203,26
249,86	90,11
250,08	97,79
250,30	124,93
250,51	99,33
250,73	37,38
250,95	60,93
251,17	159,23
251,39	76,29
251,60	197,12
251,82	163,33
252,04	99,33
252,26	55,30
252,48	113,15
252,69	134,14
252,91	100,86
253,13	41,47
253,35	139,77
253,57	105,47
253,78	96,77
254,00	116,73
254,22	104,45
254,44	118,27
254,65	54,78
254,87	68,09
255,09	81,92
255,31	105,47
255,53	86,53
255,74	111,10
255,96	122,37
256,18	116,22
256,40	135,68
256,61	99,33
256,83	195,58
257,05	118,27
257,27	159,23
257,48	35,33
257,70	128,00
257,92	115,20
258,14	108,03
258,36	36,35
258,57	177,66
258,79	117,25
259,01	126,46
259,23	97,28
259,44	45,57
259,66	131,58
259,88	162,81
260,10	90,11
260,31	108,54
260,53	136,19
260,75	-8,19
260,97	119,29
261,18	72,19
261,40	166,91
261,62	58,37
261,84	117,76
262,05	63,49
262,27	151,55
262,49	94,72
262,71	151,04
262,92	160,25
263,14	42,50
263,36	77,31
263,57	193,53
263,79	119,81
264,01	114,69
264,23	61,95
264,44	121,34
264,66	88,06
264,88	153,09
265,10	40,45
265,31	153,60
265,53	17,41
265,75	133,12
265,96	121,85
266,18	195,58
266,40	124,93
266,62	174,08
266,83	161,79
267,05	27,65
267,27	156,16
267,48	210,43
267,70	12,80
267,92	108,54
268,14	116,22
268,35	128,51
268,57	147,97
268,79	181,25
269,00	152,06
269,22	145,92
269,44	100,86
269,65	87,04
269,87	110,59
270,09	156,16
270,31	121,34
270,52	158,21
270,74	131,07
270,96	55,81
271,17	105,47
271,39	67,07
271,61	133,12
271,82	141,82
272,04	137,21
272,26	72,70
272,47	135,68
272,69	72,70
272,91	16,38
273,12	130,56
273,34	119,81
273,56	93,18
273,77	92,16
273,99	122,88
274,21	138,75
274,42	71,68
274,64	189,95
274,86	-16,38
275,08	113,15
275,29	20,48
275,51	177,66
275,72	55,81
275,94	178,17
276,16	94,72
276,37	94,72
276,59	68,09
276,81	18,43
277,02	87,04
277,24	116,22
277,46	82,43
277,67	40,96
277,89	154,11
278,11	133,63
278,32	77,82
278,54	49,15
278,76	200,70
278,97	159,74
279,19	103,93
279,41	51,20
279,62	122,88
279,84	136,70
280,05	59,90
280,27	99,33
280,49	88,57
280,70	156,67
280,92	107,01
281,14	73,21
281,35	-13,31
281,57	93,69
281,79	56,83
282,00	134,65
282,22	207,87
282,43	144,89
282,65	114,17
282,87	46,59
283,08	115,20
283,30	178,17
283,52	220,67
283,73	114,69
283,95	123,39
284,16	95,74
284,38	121,34
284,60	188,93
284,81	101,37
285,03	123,39
285,24	83,45
285,46	118,27
285,68	92,67
285,89	137,21
286,11	74,24
286,32	164,86
286,54	94,21
286,76	59,90
286,97	150,01
287,19	83,97
287,40	118,27
287,62	131,58
287,84	119,29
288,05	96,25
288,27	136,70
288,48	100,35
288,70	99,84
288,92	116,22
289,13	99,33
289,35	105,98
289,56	105,47
289,78	119,29
289,99	137,21
290,21	110,59
290,43	125,44
290,64	61,44
290,86	119,29
291,07	129,02
291,29	150,01
291,51	142,85
291,72	119,29
291,94	125,44
292,15	125,95
292,37	128,00
292,58	125,95
292,80	185,34
293,01	109,05
293,23	167,42
293,45	138,24
293,66	49,15
293,88	185,85
294,09	13,82
294,31	74,75
294,52	132,61
294,74	102,91
294,96	135,68
295,17	99,84
295,39	124,93
295,60	155,13
295,82	101,89
296,03	88,57
296,25	48,13
296,46	126,97
296,68	102,91
296,89	71,17
297,11	37,89
297,32	166,91
297,54	194,05
297,76	94,21
297,97	102,91
298,19	153,60
298,40	155,13
298,62	112,64
298,83	120,83
299,05	159,74
299,26	83,97
299,48	75,26
299,69	150,53
299,91	47,10
300,12	152,06
300,34	154,62
300,55	131,58
300,77	150,01
300,98	22,53
301,20	58,88
301,41	22,53
301,63	94,72
301,84	119,29
302,06	131,07
302,28	49,66
302,49	69,12
302,71	210,94
302,92	-24,58
303,14	132,61
303,35	122,37
303,57	68,09
303,78	174,59
304,00	138,24
304,21	96,77
304,43	81,41
304,64	103,42
304,86	60,93
305,07	136,19
305,29	131,07
305,50	75,77
305,71	114,17
305,93	132,61
306,14	168,96
306,36	173,05
306,57	155,13
306,79	137,73
307,00	59,90
307,22	129,02
307,43	66,05
307,65	163,33
307,86	103,93
308,08	120,83
308,29	123,39
308,51	104,96
308,72	169,98
308,94	126,46
309,15	142,85
309,37	88,57
309,58	95,23
309,80	91,13
310,01	101,89
310,22	110,59
310,44	101,89
310,65	130,56
310,87	126,46
311,08	132,61
311,30	93,69
311,51	177,66
311,73	130,05
311,94	89,60
312,16	53,25
312,37	131,07
312,58	167,93
312,80	93,18
313,01	102,40
313,23	103,42
313,44	132,61
313,66	65,02
313,87	175,61
314,09	49,66
314,30	100,86
314,51	109,05
314,73	40,96
314,94	173,05
315,16	90,62
315,37	158,21
315,59	43,01
315,80	60,42
316,01	124,41
316,23	121,85
316,44	156,16
316,66	127,49
316,87	217,60
317,09	161,28
317,30	137,21
317,51	135,68
317,73	120,32
317,94	71,17
318,16	143,87
318,37	44,54
318,58	-3,58
318,80	159,74
319,01	76,80
319,23	160,77
319,44	37,38
319,66	117,25
319,87	139,26
320,08	150,01
320,30	107,01
320,51	92,16
320,73	66,56
320,94	132,61
321,15	118,27
321,37	126,46
321,58	108,03
321,80	181,76
322,01	96,25
322,22	33,79
322,44	78,85
322,65	150,01
322,86	104,96
323,08	201,21
323,29	109,05
323,51	97,28
323,72	79,87
323,93	168,45
324,15	104,45
324,36	87,55
324,58	121,34
324,79	136,70
325,00	114,69
325,22	156,16
325,43	95,74
325,64	130,56
325,86	78,33
326,07	71,68
326,28	147,45
326,50	116,73
326,71	73,73
326,93	26,11
327,14	128,00
327,35	15,87
327,57	117,25
327,78	102,40
327,99	170,49
328,21	95,23
328,42	139,77
328,63	182,78
328,85	135,68
329,06	94,21
329,27	90,62
329,49	88,57
329,70	77,31
329,91	152,57
330,13	80,89
330,34	144,89
330,56	-14,34
330,77	114,17
330,98	138,24
331,20	115,71
331,41	172,54
331,62	132,09
331,84	147,97
332,05	98,30
332,26	174,59
332,48	140,29
332,69	105,47
332,90	104,96
333,11	55,81
333,33	65,02
333,54	144,89
333,75	73,73
333,97	19,97
334,18	138,75
334,39	147,45
334,61	140,80
334,82	176,13
335,03	60,42
335,25	106,49
335,46	125,95
335,67	140,29
335,89	103,93
336,10	101,89
336,31	100,86
336,53	74,24
336,74	143,87
336,95	134,65
337,16	57,34
337,38	80,38
337,59	239,61
337,80	47,62
338,02	81,41
338,23	148,99
338,44	114,69
338,65	118,78
338,87	121,34
339,08	152,57
339,29	164,35
339,51	126,46
339,72	60,93
339,93	139,77
340,14	89,60
340,36	162,30
340,57	143,87
340,78	89,09
341,00	29,18
341,21	131,07
341,42	220,67
341,63	81,92
341,85	91,65
342,06	76,80
342,27	117,76
342,49	150,53
342,70	130,05
342,91	149,50
343,12	130,56
343,34	156,67
343,55	91,13
343,76	158,21
343,97	182,78
344,19	170,49
344,40	111,10
344,61	134,14
344,82	85,50
345,04	72,19
345,25	164,86
345,46	118,78
345,67	134,14
345,89	102,40
346,10	144,89
346,31	88,57
346,52	39,94
346,74	35,33
346,95	120,83
347,16	64,51
347,37	42,50
347,59	116,73
347,80	80,89
348,01	166,91
348,22	126,46
348,43	80,89
348,65	58,88
348,86	121,34
349,07	159,23
349,28	76,29
349,50	74,24
349,71	116,73
349,92	87,04
350,13	121,85
350,34	46,08
350,56	57,34
350,77	149,50
350,98	131,07
351,19	113,66
351,41	195,58
351,62	223,23
351,83	59,39
352,04	138,24
352,25	99,33
352,47	141,31
352,68	199,16
352,89	49,15
353,10	134,65
353,31	137,73
353,53	100,35
353,74	100,86
353,95	128,00
354,16	164,35
354,37	180,73
354,59	172,03
354,80	153,60
355,01	64,51
355,22	98,30
355,43	84,48
355,65	49,66
355,86	209,40
356,07	142,85
356,28	83,97
356,49	57,86
356,70	157,69
356,92	126,97
357,13	22,53
357,34	131,07
357,55	153,09
357,76	128,00
357,98	72,70
358,19	147,97
358,40	123,90
358,61	84,99
358,82	92,16
359,03	99,33
359,25	202,75
359,46	197,12
359,67	152,06
359,88	80,38
360,09	133,63
360,30	57,34
360,51	83,97
360,73	168,96
360,94	78,33
361,15	57,86
361,36	67,58
361,57	116,73
361,78	107,01
362,00	97,79
362,21	132,09
362,42	192,51
362,63	65,02
362,84	74,24
363,05	42,50
363,26	70,14
363,48	100,35
363,69	131,58
363,90	94,21
364,11	28,67
364,32	52,22
364,53	54,78
364,74	86,01
364,95	96,77
365,17	62,46
365,38	161,79
365,59	205,31
365,80	156,67
366,01	78,33
366,22	96,77
366,43	35,84
366,64	115,20
366,86	92,67
367,07	66,56
367,28	175,10
367,49	143,87
367,70	165,89
367,91	77,31
368,12	43,52
368,33	77,31
368,54	214,01
368,76	120,32
368,97	104,45
369,18	46,59
369,39	57,34
369,60	43,01
369,81	96,77
370,02	94,21
370,23	97,79
370,44	74,75
370,65	59,90
370,87	92,16
371,08	159,74
371,29	127,49
371,50	111,10
371,71	126,46
371,92	157,18
372,13	92,67
372,34	87,55
372,55	61,44
372,76	103,93
372,97	82,94
373,18	196,09
373,40	97,79
373,61	96,25
373,82	77,31
374,03	80,89
374,24	143,36
374,45	39,94
374,66	203,77
374,87	181,76
375,08	55,30
375,29	107,01
375,50	132,09
375,71	12,29
375,92	158,21
376,13	56,32
376,34	99,84
376,56	89,60
376,77	134,14
376,98	110,08
377,19	125,44
377,40	80,38
377,61	195,07
377,82	107,52
378,03	141,31
378,24	103,93
378,45	109,05
378,66	92,67
378,87	87,04
379,08	104,96
379,29	130,05
379,50	171,01
379,71	28,16
379,92	67,58
380,13	47,62
380,34	89,60
380,55	186,37
380,76	117,76
380,97	202,75
381,18	99,33
381,39	72,70
381,60	175,10
381,81	56,32
382,02	64,00
382,24	70,14
382,45	68,61
382,66	103,93
382,87	130,05
383,08	157,69
383,29	112,13
383,50	159,74
383,71	94,21
383,92	111,61
384,13	69,12
384,34	157,18
384,55	74,24
384,76	88,06
384,97	72,70
385,18	99,33
385,39	57,86
385,60	70,65
385,81	118,78
386,02	135,17
386,23	123,90
386,44	47,10
386,65	96,77
386,86	67,58
387,07	153,09
387,28	107,52
387,49	76,80
387,70	77,82
387,91	88,06
388,12	133,63
388,32	68,61
388,53	97,28
388,74	42,50
388,95	47,10
389,16	93,18
389,37	90,62
389,58	81,92
389,79	141,82
390,00	75,77
390,21	72,70
390,42	86,01
390,63	117,76
390,84	35,84
391,05	138,24
391,26	204,80
391,47	65,02
391,68	92,16
391,89	95,23
392,10	159,74
392,31	125,44
392,52	90,62
392,73	-9,22
392,94	179,71
393,15	67,07
393,36	103,93
393,57	163,84
393,78	98,30
393,98	121,85
394,19	69,12
394,40	194,05
394,61	66,56
394,82	98,30
395,03	102,91
395,24	131,58
395,45	48,13
395,66	94,72
395,87	31,23
396,08	61,95
396,29	135,17
396,50	82,94
396,71	87,04
396,92	59,90
397,12	163,84
397,33	109,57
397,54	22,53
397,75	85,50
397,96	114,69
398,17	102,91
398,38	90,11
398,59	141,82
398,80	-22,53
399,01	175,10
399,22	76,29
399,43	65,53
399,63	120,83
399,84	102,91
400,05	128,51
400,26	51,71
400,47	118,27
400,68	122,88
400,89	111,61
401,10	64,51
401,31	130,56
401,52	89,09
401,72	96,25
401,93	67,07
402,14	112,13
402,35	157,18
402,56	104,45
402,77	111,61
402,98	114,69
403,19	83,45
403,40	146,43
403,60	115,71
403,81	186,37
404,02	103,93
404,23	115,20
404,44	120,83
404,65	103,93
404,86	106,49
405,07	71,68
405,27	87,55
405,48	90,11
405,69	37,89
405,90	107,52
406,11	144,38
406,32	134,65
406,53	129,53
406,74	74,75
406,94	81,92
407,15	130,56
407,36	34,82
407,57	83,97
407,78	76,80
407,99	95,23
408,20	100,86
408,40	111,10
408,61	130,56
408,82	137,73
409,03	90,11
409,24	114,69
409,45	48,13
409,65	98,30
409,86	99,33
410,07	27,65
410,28	109,05
410,49	103,93
410,70	168,45
410,90	141,31
411,11	94,72
411,32	94,21
411,53	152,57
411,74	138,75
411,95	155,13
412,15	176,64
412,36	22,53
412,57	129,02
412,78	84,48
412,99	159,74
413,20	89,60
413,40	69,12
413,61	88,06
413,82	135,17
414,03	107,52
414,24	136,19
414,44	125,95
414,65	68,09
414,86	16,90
415,07	134,65
415,28	144,38
415,48	138,75
415,69	68,09
415,90	100,86
416,11	88,06
416,32	151,04
416,53	60,93
416,73	157,69
416,94	149,50
417,15	107,01
417,36	116,22
417,56	133,12
417,77	77,82
417,98	72,19
418,19	186,88
418,40	153,09
418,60	54,78
418,81	137,21
419,02	70,14
419,23	64,00
419,44	36,35
419,64	85,50
419,85	116,73
420,06	153,09
420,27	105,98
420,47	34,82
420,68	167,42
420,89	122,37
421,10	105,98
421,30	117,76
421,51	147,97
421,72	89,09
421,93	66,56
422,14	188,41
422,34	155,13
422,55	66,05
422,76	81,92
422,97	45,57
423,17	124,93
423,38	65,02
423,59	52,22
423,80	132,61
424,00	86,53
424,21	111,61
424,42	113,15
424,63	58,37
424,83	32,26
425,04	140,80
425,25	71,17
425,46	153,60
425,66	122,88
425,87	144,38
426,08	148,48
426,28	130,56
426,49	163,33
426,70	129,53
426,91	141,31
427,11	131,07
427,32	213,50
427,53	98,30
427,74	119,81
427,94	66,05
428,15	200,19
428,36	173,05
428,56	71,68
428,77	66,05
428,98	90,62
429,19	144,89
429,39	167,93
429,60	58,88
429,81	119,81
430,01	227,84
430,22	120,32
430,43	69,63
430,64	55,81
430,84	11,26
431,05	122,88
431,26	118,27
431,46	131,58
431,67	56,32
431,88	119,29
432,08	148,48
432,29	62,46
432,50	45,06
432,70	140,29
432,91	126,97
433,12	77,82
433,33	102,91
433,53	98,30
433,74	112,13
433,95	96,77
434,15	94,72
434,36	130,56
434,57	145,92
434,77	60,93
434,98	116,73
435,19	105,98
435,39	95,23
435,60	44,03
435,81	137,73
436,01	55,30
436,22	57,86
436,43	154,62
436,63	152,57
436,84	83,97
437,05	40,96
437,25	21,50
437,46	164,35
437,67	59,90
437,87	87,55
438,08	57,34
438,29	72,70
438,49	78,85
438,70	140,80
438,91	162,81
439,11	81,41
439,32	179,71
439,52	162,30
439,73	182,27
439,94	113,15
440,14	120,83
440,35	85,50
440,56	110,59
440,76	119,29
440,97	109,57
441,18	100,86
441,38	91,65
441,59	98,81
441,79	76,80
442,00	103,93
442,21	116,22
442,41	129,02
442,62	36,86
442,83	112,64
443,03	105,98
443,24	180,73
443,44	115,20
443,65	118,27
443,86	93,69
444,06	77,82
444,27	114,69
444,48	80,38
444,68	118,78
444,89	27,14
445,09	81,41
445,30	132,61
445,51	124,41
445,71	102,40
445,92	112,13
446,12	73,73
446,33	140,80
446,54	163,84
446,74	96,77
446,95	158,72
447,15	125,95
447,36	129,02
447,57	90,11
447,77	117,25
447,98	136,19
448,18	58,88
448,39	46,59
448,59	93,18
448,80	58,37
449,01	100,35
449,21	81,92
449,42	111,61
449,62	139,77
449,83	48,64
450,04	158,21
450,24	105,98
450,45	147,97
450,65	99,33
450,86	180,73
451,06	131,58
451,27	124,93
451,47	10,24
451,68	101,89
451,89	52,22
452,09	62,98
452,30	111,10
452,50	164,35
452,71	140,29
452,91	79,36
453,12	121,85
453,33	146,94
453,53	65,02
453,74	29,70
453,94	115,20
454,15	106,49
454,35	115,71
454,56	88,57
454,76	153,60
454,97	142,33
455,17	112,64
455,38	46,08
455,58	103,93
455,79	124,93
456,00	159,74
456,20	11,26
456,41	141,31
456,61	95,74
456,82	111,10
457,02	116,22
457,23	199,68
457,43	71,68
457,64	86,53
457,84	50,69
458,05	143,87
458,25	115,20
458,46	65,53
458,66	60,93
458,87	47,62
459,07	81,41
459,28	136,70
459,48	87,04
459,69	52,22
459,89	162,81
460,10	139,26
460,30	152,57
460,51	85,50
460,71	112,64
460,92	111,10
461,12	130,05
461,33	43,52
461,53	89,09
461,74	60,93
461,94	87,55
462,15	115,71
462,35	75,77
462,56	84,99
462,76	61,95
462,97	86,53
463,17	33,28
463,38	136,70
463,58	105,47
463,79	89,60
463,99	58,88
464,20	148,48
464,40	135,17
464,61	63,49
464,81	172,03
465,02	95,74
465,22	68,61
465,43	16,90
465,63	130,56
465,83	67,58
466,04	136,19
466,24	35,84
466,45	212,99
466,65	177,15
466,86	136,19
467,06	57,34
467,27	89,60
467,47	80,89
467,68	162,30
467,88	47,62
468,08	149,50
468,29	102,40
468,49	160,77
468,70	114,69
468,90	124,93
469,11	163,33
469,31	76,80
469,52	82,94
469,72	107,52
469,92	137,21
470,13	111,61
470,33	159,23
470,54	135,17
470,74	175,10
470,95	113,66
471,15	110,59
471,35	77,82
471,56	98,30
471,76	89,60
471,97	112,64
472,17	44,54
472,38	51,20
472,58	127,49
472,78	154,11
472,99	121,34
473,19	120,83
473,40	131,58
473,60	93,69
473,80	73,21
474,01	98,30
474,21	43,52
474,42	133,12
474,62	89,60
474,83	89,09
475,03	124,41
475,23	139,26
475,44	142,85
475,64	169,47
475,85	105,47
476,05	102,40
476,25	117,25
476,46	128,51
476,66	74,24
476,86	155,13
477,07	158,72
477,27	182,78
477,48	89,09
477,68	59,90
477,88	142,85
478,09	24,06
478,29	98,81
478,50	79,87
478,70	94,21
478,90	48,64
479,11	30,21
479,31	108,03
479,51	196,09
479,72	135,17
479,92	22,53
480,12	140,29
480,33	50,69
480,53	131,58
480,74	107,01
480,94	144,89
481,14	152,06
481,35	118,78
481,55	115,71
481,75	59,39
481,96	121,85
482,16	78,33
482,36	134,14
482,57	101,37
482,77	76,80
482,97	41,47
483,18	70,65
483,38	138,24
483,58	91,65
483,79	63,49
483,99	140,29
484,19	68,09
484,40	59,39
484,60	118,27
484,80	113,66
485,01	161,79
485,21	122,37
485,41	48,13
485,62	153,09
485,82	87,04
486,02	133,12
486,23	140,80
486,43	105,98
486,63	75,77
486,84	165,37
487,04	124,41
487,24	71,68
487,45	64,51
487,65	74,75
487,85	129,02
488,06	125,95
488,26	56,83
488,46	89,60
488,67	85,50
488,87	84,48
489,07	39,94
489,27	137,73
489,48	98,81
489,68	90,11
489,88	91,65
490,09	120,83
490,29	43,52
490,49	74,75
490,70	107,01
490,90	178,17
491,10	47,10
491,30	174,59
491,51	-10,75
491,71	161,28
491,91	167,93
492,12	120,83
492,32	60,93
492,52	57,34
492,72	130,56
492,93	114,69
493,13	118,78
493,33	135,17
493,53	157,69
493,74	41,98
493,94	96,25
494,14	107,01
494,34	124,93
494,55	29,18
494,75	84,99
494,95	192,51
495,16	130,56
495,36	47,10
495,56	124,41
495,76	72,70
495,97	130,56
496,17	72,70
496,37	134,14
496,57	168,96
496,78	29,18
496,98	102,91
497,18	98,81
497,38	121,85
497,59	102,40
497,79	113,15
497,99	118,78
498,19	88,06
498,39	109,57
498,60	104,45
498,80	61,44
499,00	143,87
499,20	178,69
499,41	105,47
499,61	112,64
499,81	131,07
500,01	126,97
500,22	65,54
500,42	49,15
500,62	193,53
500,82	145,92
501,02	84,99
501,23	108,03
501,43	140,80
501,63	129,02
501,83	108,54
502,03	119,29
502,24	50,69
502,44	72,19
502,64	152,06
502,84	121,34
503,05	94,21
503,25	92,67
503,45	23,55
503,65	133,63
503,85	113,66
504,06	66,56
504,26	59,39
504,46	110,08
504,66	94,72
504,86	164,35
505,06	93,18
505,27	78,33
505,47	82,94
505,67	180,73
505,87	74,24
506,07	117,25
506,28	144,38
506,48	93,18
506,68	118,78
506,88	98,30
507,08	68,61
507,28	116,22
507,49	79,87
507,69	85,50
507,89	70,65
508,09	24,06
508,29	141,31
508,49	57,34
508,70	84,99
508,90	97,79
509,10	149,50
509,30	29,18
509,50	46,59
509,70	159,74
509,91	196,09
510,11	61,95
510,31	41,47
510,51	7,17
510,71	65,53
510,91	97,79
511,11	42,50
511,32	130,56
511,52	165,37
511,72	159,23
511,92	94,21
512,12	23,04
512,32	-33,28
512,52	54,78
512,73	71,68
512,93	167,93
513,13	69,12
513,33	110,08
513,53	150,53
513,73	166,91
513,93	127,49
514,13	103,42
514,34	88,57
514,54	164,35
514,74	74,24
514,94	127,49
515,14	140,80
515,34	103,93
515,54	99,84
515,74	164,86
515,94	131,07
516,15	122,88
516,35	155,65
516,55	92,16
516,75	92,67
516,95	75,26
517,15	33,28
517,35	82,94
517,55	142,85
517,75	186,88
517,95	108,03
518,16	114,69
518,36	24,58
518,56	36,35
518,76	157,18
518,96	185,85
519,16	88,06
519,36	101,37
519,56	177,15
519,76	140,80
519,96	48,13
520,16	147,97
520,37	-7,68
520,57	148,48
520,77	122,37
520,97	61,44
521,17	37,89
521,37	159,23
521,57	90,11
521,77	130,05
521,97	101,37
522,17	76,29
522,37	169,98
522,57	85,50
522,77	56,83
522,97	150,53
523,17	64,51
523,37	64,00
523,58	197,63
523,78	-13,31
523,98	114,17
524,18	169,47
524,38	115,20
524,58	163,84
524,78	101,37
524,98	93,69
525,18	109,05
525,38	60,93
525,58	97,79
525,78	66,05
525,98	53,25
526,18	167,42
526,38	87,55
526,58	99,33
526,78	118,78
526,98	34,30
527,18	116,73
527,38	96,77
527,58	91,13
527,78	108,03
527,98	100,86
528,18	124,41
528,38	92,16
528,58	45,06
528,78	113,66
528,98	131,07
529,18	64,00
529,38	23,55
529,58	73,73
529,78	110,08
529,98	48,64
530,18	72,70
530,38	144,89
530,58	74,24
530,78	117,25
530,98	28,16
531,18	105,98
531,38	129,53
531,58	149,50
531,78	78,85
531,98	69,12
532,18	87,04
532,38	105,98
532,58	157,69
532,78	62,46
532,98	177,15
533,18	118,78
533,38	171,52
533,58	119,29
533,78	165,37
533,98	99,84
534,18	118,78
534,38	202,24
534,58	67,07
534,78	158,72
534,98	110,59
535,18	84,99
535,38	250,36
535,58	161,28
535,78	94,21
535,98	86,01
536,18	49,66
536,38	152,06
536,58	160,77
536,78	160,77
536,98	110,59
537,18	141,82
537,38	16,38
537,58	177,15
537,78	106,49
537,98	151,55
538,17	159,74
538,37	113,66
538,57	58,88
538,77	60,42
538,97	90,11
539,17	37,38
539,37	82,43
539,57	6,66
539,77	132,09
539,97	64,00
540,17	56,83
540,37	102,91
540,57	72,70
540,77	107,52
540,97	119,81
541,16	96,25
541,36	114,17
541,56	107,01
541,76	101,89
541,96	116,73
542,16	176,13
542,36	38,40
542,56	93,69
542,76	113,66
542,96	36,35
543,16	116,22
543,36	60,93
543,55	86,01
543,75	125,95
543,95	31,74
544,15	66,56
544,35	124,93
544,55	186,37
544,75	-27,65
544,95	95,74
545,15	99,33
545,35	178,17
545,54	200,19
545,74	129,53
545,94	99,33
546,14	99,33
546,34	86,53
546,54	179,71
546,74	94,21
546,94	39,42
547,14	94,21
547,33	138,24
547,53	90,11
547,73	81,92
547,93	163,84
548,13	100,35
548,33	118,78
548,53	115,20
548,72	95,23
548,92	132,09
549,12	114,17
549,32	105,98
549,52	121,34
549,72	210,94
549,92	89,60
550,12	31,23
550,31	140,29
550,51	116,22
550,71	137,21
550,91	122,88
551,11	131,58
551,31	104,96
551,50	172,03
551,70	152,57
551,90	133,63
552,10	60,93
552,30	119,81
552,50	170,49
552,70	50,18
552,89	20,99
553,09	166,40
553,29	133,12
553,49	192,00
553,69	132,61
553,88	64,00
554,08	124,41
554,28	165,37
554,48	159,74
554,68	202,24
554,88	113,66
555,07	128,51
555,27	98,30
555,47	172,54
555,67	103,93
555,87	89,60
556,06	144,89
556,26	147,97
556,46	148,48
556,66	177,66
556,86	138,24
557,06	187,90
557,25	154,11
557,45	-55,81
557,65	167,93
557,85	142,85
558,05	112,64
558,24	132,09
558,44	196,61
558,64	135,68
558,84	154,62
559,03	153,09
559,23	242,68
559,43	137,21
559,63	193,02
559,83	112,13
560,02	97,28
560,22	160,77
560,42	158,72
560,62	221,69
560,82	111,10
561,01	109,57
561,21	135,17
561,41	90,11
561,61	155,65
561,80	148,99
562,00	109,57
562,20	129,02
562,40	142,33
562,59	147,45
562,79	113,15
562,99	182,78
563,19	266,24
563,38	166,40
563,58	227,84
563,78	167,42
563,98	192,51
564,17	108,54
564,37	122,88
564,57	287,23
564,77	155,65
564,96	175,61
565,16	151,55
565,36	199,68
565,56	171,52
565,75	170,49
565,95	195,58
566,15	161,28
566,35	160,25
566,54	145,92
566,74	203,26
566,94	129,02
567,14	186,88
567,33	268,28
567,53	252,92
567,73	207,36
567,92	212,48
568,12	184,32
568,32	203,26
568,52	193,02
568,71	113,15
568,91	173,57
569,11	217,08
569,30	167,42
569,50	240,64
569,70	192,51
569,90	198,65
570,09	210,94
570,29	243,20
570,49	253,95
570,68	248,32
570,88	211,96
571,08	231,42
571,27	274,43
571,47	248,83
571,67	338,43
571,87	181,25
572,06	294,91
572,26	201,72
572,46	260,60
572,65	143,87
572,85	212,48
573,05	199,68
573,24	198,14
573,44	272,38
573,64	266,24
573,83	299,00
574,03	258,04
574,23	260,09
574,42	260,60
574,62	232,96
574,82	230,91
575,01	222,20
575,21	273,40
575,41	244,73
575,60	270,33
575,80	252,41
576,00	252,92
576,19	224,76
576,39	223,23
576,59	239,61
576,78	271,87
576,98	317,44
577,18	311,29
577,37	312,83
577,57	308,73
577,77	287,23
577,96	320,51
578,16	365,56
578,35	284,16
578,55	342,52
578,75	320,00
578,94	305,15
579,14	431,61
579,34	446,97
579,53	357,88
579,73	384,51
579,93	380,41
580,12	308,22
580,32	373,24
580,51	358,91
580,71	404,47
580,91	444,92
581,10	437,24
581,30	446,97
581,50	473,08
581,69	389,63
581,89	395,77
582,08	427,51
582,28	483,32
582,48	474,10
582,67	429,56
582,87	410,62
583,06	464,89
583,26	569,34
583,46	449,02
583,65	447,99
583,85	473,59
584,04	511,99
584,24	525,30
584,44	455,16
584,63	546,30
584,83	558,58
585,02	611,32
585,22	621,56
585,42	577,02
585,61	593,91
585,81	588,28
586,00	650,23
586,20	743,41
586,39	715,77
586,59	716,79
586,79	709,62
586,98	777,20
587,18	716,79
587,37	784,37
587,57	801,27
587,76	717,30
587,96	789,49
588,16	817,65
588,35	799,73
588,55	800,24
588,74	893,94
588,94	874,48
589,13	927,22
589,33	886,26
589,52	898,03
589,72	982,51
589,92	952,31
590,11	1015,79
590,31	1060,34
590,50	1094,64
590,70	1045,49
590,89	1000,43
591,09	1051,12
591,28	1088,50
591,48	1207,28
591,67	1174,00
591,87	1209,84
592,06	1248,24
592,26	1243,12
592,46	1248,24
592,65	1331,18
592,85	1276,91
593,04	1350,12
593,24	1424,87
593,43	1379,31
593,63	1423,85
593,82	1447,91
594,02	1470,95
594,21	1541,10
594,41	1627,62
594,60	1506,79
594,80	1547,24
594,99	1639,91
595,19	1670,63
595,38	1680,87
595,58	1754,09
595,77	1826,79
595,97	1841,12
596,16	1838,56
596,36	1830,37
596,55	1920,48
596,75	1971,17
596,94	1885,67
597,14	2013,15
597,33	2099,68
597,53	2093,54
597,72	2260,96
597,92	2202,08
598,11	2325,98
598,31	2273,76
598,50	2359,77
598,70	2410,97
598,89	2379,74
599,09	2442,20
599,28	2511,32
599,48	2516,95
599,67	2659,80
599,87	2743,77
600,06	2831,83
600,26	2762,71
600,45	2824,15
600,64	2839,00
600,84	2995,15
601,03	3072,47
601,23	3063,25
601,42	3094,99
601,62	3287,50
601,81	3249,61
602,01	3318,73
602,20	3338,19
602,40	3472,84
602,59	3504,07
602,78	3562,44
602,98	3698,12
603,17	3749,32
603,37	3838,41
603,56	4011,46
603,76	3996,10
603,95	4064,19
604,15	4144,58
604,34	4181,95
604,53	4189,63
604,73	4470,20
604,92	4423,61
605,12	4739,00
605,31	4752,82
605,51	4800,44
605,70	4870,58
605,89	4987,83
606,09	5031,35
606,28	5157,30
606,48	5406,13
606,67	5323,69
606,87	5470,64
607,06	5418,93
607,25	5606,31
607,45	5771,69
607,64	5907,37
607,84	6113,70
608,03	6164,39
608,22	6225,83
608,42	6304,16
608,61	6518,17
608,81	6654,36
609,00	6726,04
609,19	6892,44
609,39	6944,66
609,58	7163,28
609,78	7471,50
609,97	7520,14
610,16	7555,47
610,36	7640,97
610,55	7649,68
610,75	7902,09
610,94	7955,85
611,13	8121,22
611,33	8370,56
611,52	8460,16
611,71	8513,92
611,91	8885,11
612,10	8888,70
612,30	9132,92
612,49	9287,03
612,68	9615,21
612,88	9577,84
613,07	9880,43
613,26	10222,95
613,46	10367,33
613,65	10461,54
613,84	10825,05
614,04	10972,50
614,23	11149,65
614,43	11499,34
614,62	11579,22
614,81	11934,03
615,01	12019,53
615,20	12342,60
615,39	12595,52
615,59	12785,47
615,78	12882,75
615,97	13256,50
616,17	13542,71
616,36	13898,54
616,55	14247,21
616,75	14512,42
616,94	14872,86
617,13	15196,44
617,33	15562,51
617,52	15973,13
617,71	16046,35
617,91	16720,64
618,10	16942,85
618,29	17171,71
618,49	17570,04
618,68	18136,81
618,87	18200,30
619,07	18777,31
619,26	19245,27
619,45	19748,05
619,65	20077,26
619,84	20500,17
620,03	21008,06
620,22	21378,75
620,42	21691,06
620,61	22237,36
620,80	22606,50
621,00	23125,66
621,19	23522,46
621,38	24104,59
621,58	24380,56
621,77	24857,73
621,96	25510,01
622,15	26245,74
622,35	26794,60
622,54	27187,81
622,73	28013,65
622,93	28319,82
623,12	28952,65
623,31	29228,61
623,50	29738,55
623,70	30260,79
623,89	30360,11
624,08	30679,08
624,28	31722,01
624,47	32210,96
624,66	32535,57
624,85	33408,00
625,05	33290,24
625,24	33883,13
625,43	34855,40
625,62	35197,93
625,82	35649,50
626,01	35741,66
626,20	36505,04
626,39	36736,98
626,59	37536,71
626,78	38124,99
626,97	39018,92
627,17	39216,04
627,36	39626,66
627,55	39963,55
627,74	40508,82
627,93	40926,61
628,13	41280,91
628,32	41719,68
628,51	42515,83
628,70	42752,88
628,90	43054,96
629,09	43678,57
629,28	44272,48
629,47	44883,28
629,67	44995,92
629,86	45781,83
630,05	46317,37
630,24	46781,24
630,44	46943,54
630,63	47613,74
630,82	48071,97
631,01	48685,85
631,20	48850,71
631,40	49796,36
631,59	50405,63
631,78	50687,74
631,97	50988,28
632,16	51227,89
632,36	51637,48
632,55	51738,86
632,74	52622,05
632,93	53055,19
633,13	52855,00
633,32	52932,82
633,51	52611,81
633,70	52771,03
633,89	52498,65
634,09	52392,67
634,28	51781,35
634,47	51493,61
634,66	51220,72
634,85	50753,27
635,04	50433,79
635,24	49991,94
635,43	49406,73
635,62	48453,92
635,81	47776,04
636,00	46715,19
636,20	46169,92
636,39	45210,96
636,58	43637,09
636,77	42697,08
636,96	41715,08
637,15	40319,90
637,35	38926,25
637,54	37699,01
637,73	36440,53
637,92	35117,54
638,11	33893,88
638,30	32244,24
638,50	30914,60
638,69	29897,27
638,88	28494,41
639,07	27267,17
639,26	26397,81
639,45	24878,21
639,64	23837,33
639,84	22858,40
640,03	21664,95
640,22	20641,99
640,41	19629,78
640,60	18512,61
640,79	17965,81
640,98	17023,23
641,18	16098,06
641,37	15450,90
641,56	14609,19
641,75	13950,76
641,94	13353,27
642,13	12729,66
642,32	12137,80
642,52	11626,83
642,71	11067,22
642,90	10637,66
643,09	10177,89
643,28	9642,35
643,47	9148,79
643,66	8915,32
643,85	8334,21
644,04	8107,40
644,24	7757,71
644,43	7496,59
644,62	7072,66
644,81	6847,38
645,00	6631,83
645,19	6350,24
645,38	6134,18
645,57	5884,84
645,76	5568,94
645,96	5501,87
646,15	5240,75
646,34	5099,95
646,53	4837,30
646,72	4840,89
646,91	4631,99
647,10	4456,89
647,29	4431,29
647,48	4299,71
647,67	4136,38
647,86	4065,73
648,05	3873,22
648,25	3783,11
648,44	3625,42
648,63	3569,61
648,82	3391,95
649,01	3252,69
649,20	3191,76
649,39	3088,34
649,58	3040,72
649,77	2888,15
649,96	2778,07
650,15	2792,41
650,34	2574,30
650,53	2535,90
650,72	2515,42
650,91	2385,88
651,11	2375,64
651,30	2274,27
651,49	2114,53
651,68	2013,67
651,87	1970,15
652,06	1956,83
652,25	1890,79
652,44	1874,40
652,63	1727,97
652,82	1729,00
653,01	1680,87
653,20	1597,42
653,39	1545,19
653,58	1423,34
653,77	1449,45
653,96	1338,35
654,15	1378,28
654,34	1327,60
654,53	1181,17
654,72	1266,16
654,91	1235,95
655,10	1157,61
655,29	1039,34
655,48	1166,32
655,67	1034,22
655,86	1002,99
656,05	987,12
656,24	883,19
656,43	912,88
656,62	899,06
656,81	858,10
657,00	851,95
657,19	866,29
657,38	767,48
657,57	754,16
657,76	782,84
657,95	707,57
658,14	716,28
658,33	689,14
658,52	596,47
658,71	606,71
658,90	630,26
659,09	599,54
659,28	574,97
659,47	525,82
659,66	502,26
659,85	535,54
660,04	551,42
660,23	555,51
660,42	458,75
660,61	499,70
660,80	519,67
660,99	482,30
661,18	524,28
661,37	460,79
661,56	467,96
661,75	440,31
661,94	470,52
662,13	413,69
662,32	360,95
662,51	390,14
662,70	467,96
662,89	294,91
663,08	387,58
663,27	418,81
663,46	312,32
663,65	381,43
663,83	376,31
664,02	361,47
664,21	301,05
664,40	347,13
664,59	331,26
664,78	296,44
664,97	334,84
665,16	191,49
665,35	360,44
665,54	267,26
665,73	267,77
665,92	330,75
666,11	208,38
666,30	285,69
666,49	271,87
666,67	217,08
666,86	258,56
667,05	274,94
667,24	259,58
667,43	173,05
667,62	184,32
667,81	170,49
668,00	220,16
668,19	155,65
668,38	271,87
668,57	214,52
668,76	222,72
668,94	107,52
669,13	226,30
669,32	160,77
669,51	182,27
669,70	230,40
669,89	133,12
670,08	223,23
670,27	124,41
670,46	178,17
670,64	154,62
670,83	212,48
671,02	132,61
671,21	162,30
671,40	130,05
671,59	198,65
671,78	137,21
671,97	118,78
672,16	120,83
672,34	141,31
672,53	183,29
672,72	138,24
672,91	169,47
673,10	205,31
673,29	167,42
673,48	110,59
673,66	99,84
673,85	197,12
674,04	183,81
674,23	107,52
674,42	81,92
674,61	168,45
674,80	162,81
674,98	110,08
675,17	158,21
675,36	69,12
675,55	122,88
675,74	86,53
675,93	157,18
676,12	97,79
676,30	186,88
676,49	71,17
676,68	158,72
676,87	121,34
677,06	141,31
677,25	130,05
677,43	147,97
677,62	125,44
677,81	113,15
678,00	150,01
678,19	75,77
678,37	148,48
678,56	117,25
678,75	27,14
678,94	136,19
679,13	120,32
679,32	92,67
679,50	114,17
679,69	168,45
679,88	23,04
680,07	157,69
680,26	122,88
680,44	188,93
680,63	61,95
680,82	50,69
681,01	70,65
681,20	123,39
681,38	125,44
681,57	121,85
681,76	113,66
681,95	95,23
682,14	119,29
682,32	51,20
682,51	51,71
682,70	90,62
682,89	92,16
683,07	55,81
683,26	78,33
683,45	83,45
683,64	164,86
683,83	117,25
684,01	78,33
684,20	84,99
684,39	98,30
684,58	28,16
684,76	69,12
684,95	58,37
685,14	6,14
685,33	62,46
685,52	116,22
685,70	136,70
685,89	53,25
686,08	145,41
686,27	-15,87
686,45	61,44
686,64	110,59
686,83	125,95
687,02	152,57
687,20	100,86
687,39	94,21
687,58	95,23
687,76	16,38
687,95	103,93
688,14	150,53
688,33	146,43
688,51	174,59
688,70	51,71
688,89	130,56
689,08	131,58
689,26	99,84
689,45	70,65
689,64	124,93
689,83	61,44
690,01	9,73
690,20	129,53
690,39	136,19
690,57	138,75
690,76	111,61
690,95	103,93
691,14	97,79
691,32	78,85
691,51	104,45
691,70	214,01
691,88	156,16
692,07	138,75
692,26	110,08
692,44	133,12
692,63	146,43
692,82	74,75
693,01	38,40
693,19	73,21
693,38	120,83
693,57	95,23
693,75	69,63
693,94	70,14
694,13	30,72
694,31	74,24
694,50	86,01
694,69	139,77
694,87	109,57
695,06	86,53
695,25	32,77
695,43	108,54
695,62	50,69
695,81	45,57
695,99	101,89
696,18	91,13
696,37	57,86
696,55	77,31
696,74	93,18
696,93	204,80
697,11	120,32
697,30	80,38
697,49	30,21
697,67	155,13
697,86	85,50
698,05	105,47
698,23	63,49
698,42	132,09
698,61	46,59
698,79	53,76
698,98	73,73
699,17	49,15
699,35	56,32
699,54	119,29
699,72	67,07
699,91	87,55
700,10	76,80
700,28	71,68
700,47	121,85
700,66	4,10
700,84	161,28
701,03	121,85
701,21	114,69
701,40	102,91
701,59	61,95
701,77	148,99
701,96	182,27
702,15	189,95
702,33	91,65
702,52	95,74
702,70	86,01
702,89	142,85
703,08	71,68
703,26	78,33
703,45	77,82
703,63	125,44
703,82	79,87
704,01	140,29
704,19	168,45
704,38	102,91
704,56	110,08
704,75	85,50
704,94	108,54
705,12	120,32
705,31	173,05
705,49	78,85
705,68	39,94
705,86	104,96
706,05	81,41
706,24	122,88
706,42	152,06
706,61	32,26
706,79	111,10
706,98	48,64
707,17	136,70
707,35	109,57
707,54	22,02
707,72	48,64
707,91	80,38
708,09	59,39
708,28	101,37
708,46	67,58
708,65	153,09
708,84	76,29
709,02	105,98
709,21	152,57
709,39	92,16
709,58	113,66
709,76	-10,24
709,95	96,25
710,13	46,59
710,32	72,19
710,50	125,95
710,69	129,53
710,88	55,30
711,06	63,49
711,25	84,48
711,43	102,91
711,62	88,06
711,80	87,55
711,99	-8,19
712,17	63,49
712,36	140,80
712,54	60,93
712,73	82,43
712,91	123,90
713,10	165,89
713,28	67,07
713,47	62,46
713,65	116,73
713,84	107,52
714,02	90,11
714,21	131,58
714,39	123,90
714,58	28,67
714,76	114,69
714,95	115,20
715,13	41,98
715,32	91,65
715,50	56,83
715,69	174,59
715,87	44,03
716,06	83,97
716,24	15,87
716,43	108,03
716,61	82,94
716,80	76,29
716,98	-24,06
717,17	143,36
717,35	167,42
717,54	46,59
717,72	-8,19
717,91	33,79
718,09	60,42
718,28	61,95
718,46	113,66
718,65	84,48
718,83	42,50
719,01	82,43
719,20	35,33
719,38	45,57
719,57	128,00
719,75	36,35
719,94	67,58
720,12	93,18
720,31	119,81
720,49	71,17
720,68	110,08
720,86	114,69
721,04	98,30
721,23	61,44
721,41	16,38
721,60	123,39
721,78	102,91
721,97	23,04
722,15	97,79
722,34	171,52
722,52	147,45
722,70	36,86
722,89	79,87
723,07	56,32
723,26	118,27
723,44	52,74
723,63	106,49
723,81	57,86
723,99	93,69
724,18	117,76
724,36	96,77
724,55	121,85
724,73	45,06
724,91	33,79
725,10	119,81
725,28	101,89
725,47	183,81
725,65	104,45
725,83	83,97
726,02	97,28
726,20	164,35
726,39	20,99
726,57	105,47
726,75	13,82
726,94	88,06
727,12	162,81
727,31	82,43
727,49	91,65
727,67	152,57
727,86	136,19
728,04	37,89
728,23	148,48
728,41	52,74
728,59	100,35
728,78	171,01
728,96	107,01
729,14	109,57
729,33	52,22
729,51	78,85
729,69	94,21
729,88	76,80
730,06	128,00
730,25	109,05
730,43	204,80
730,61	185,85
730,80	126,46
730,98	82,94
731,16	128,51
731,35	53,76
731,53	121,85
731,71	103,42
731,90	99,84
732,08	78,85
732,26	24,06
732,45	46,59
732,63	87,55
732,81	46,08
733,00	84,48
733,18	125,95
733,36	115,20
733,55	164,35
733,73	110,59
733,91	-23,04
734,10	57,86
734,28	52,74
734,46	35,84
734,65	143,87
734,83	114,17
735,01	76,80
735,20	167,42
735,38	36,35
735,56	115,71
735,75	123,90
735,93	10,24
736,11	193,02
736,30	91,65
736,48	38,40
736,66	96,25
736,84	156,16
737,03	81,41
737,21	56,83
737,39	11,78
737,58	162,30
737,76	25,60
737,94	21,50
738,12	82,43
738,31	75,26
738,49	75,77
738,67	-9,73
738,86	97,79
739,04	80,89
739,22	128,00
739,40	113,66
739,59	16,38
739,77	25,60
739,95	129,02
740,14	66,05
740,32	68,09
740,50	128,51
740,68	68,09
740,87	67,58
741,05	182,78
741,23	113,66
741,41	18,94
741,60	135,68
741,78	130,56
741,96	193,02
742,14	45,57
742,33	83,97
742,51	89,09
742,69	152,57
742,87	53,25
743,06	62,46
743,24	39,94
743,42	184,83
743,60	36,86
743,79	76,29
743,97	79,87
744,15	29,70
744,33	84,99
744,52	37,89
744,70	87,04
744,88	138,75
745,06	123,90
745,24	105,98
745,43	141,82
745,61	85,50
745,79	48,64
745,97	136,19
746,16	157,69
746,34	144,89
746,52	180,73
746,70	39,94
746,88	142,33
747,07	97,28
747,25	66,56
747,43	157,18
747,61	119,29
747,79	113,66
747,98	82,43
748,16	141,82
748,34	55,81
748,52	3,07
748,70	-20,99
748,89	182,27
749,07	36,86
749,25	94,21
749,43	59,90
749,61	117,25
749,79	181,76
749,98	118,78
750,16	31,23
750,34	98,30
750,52	108,03
750,70	139,26
750,88	125,44
751,07	188,41
751,25	4,61
751,43	91,13
751,61	5,63
751,79	61,95
751,97	151,04
752,16	71,17
752,34	62,98
752,52	60,42
752,70	170,49
752,88	64,51
753,06	116,22
753,25	52,74
753,43	123,90
753,61	82,43
753,79	-36,35
753,97	82,94
754,15	74,24
754,33	82,43
754,52	134,65
754,70	6,66
754,88	76,80
755,06	86,01
755,24	125,44
755,42	122,37
755,60	86,53
755,78	119,81
755,97	149,50
756,15	58,88
756,33	50,69
756,51	116,22
756,69	89,09
756,87	93,69
757,05	109,57
757,23	4,10
757,41	101,89
757,60	57,34
757,78	87,55
757,96	62,46
758,14	32,77
758,32	45,57
758,50	110,08
758,68	112,64
758,86	129,02
759,04	152,06
759,22	126,46
759,41	51,20
759,59	111,10
759,77	178,69
759,95	15,36
760,13	79,87
760,31	134,14
760,49	122,88
760,67	94,72
760,85	-11,78
761,03	118,27
761,21	47,10
761,39	79,87
761,57	99,84
761,76	111,61
761,94	165,37
762,12	113,15
762,30	105,47
762,48	144,38
762,66	68,61
762,84	82,43
763,02	113,15
763,20	70,65
763,38	103,93
763,56	76,80
763,74	128,51
763,92	90,11
764,10	189,95
764,28	127,49
764,46	92,16
764,64	187,39
764,82	157,18
765,00	75,26
765,19	46,59
765,37	103,42
765,55	76,80
765,73	24,06
765,91	115,71
766,09	69,63
766,27	96,25
766,45	66,56
766,63	87,55
766,81	95,74
766,99	69,63
767,17	13,82
767,35	84,48
767,53	99,84
767,71	118,27
767,89	92,16
768,07	89,09
768,25	60,42
768,43	94,21
768,61	98,30
768,79	76,80
768,97	112,64
769,15	94,72
769,33	74,75
769,51	109,05
769,69	59,39
769,87	127,49
770,05	56,83
770,23	128,00
770,41	118,78
770,59	82,94
770,77	67,07
770,95	101,89
771,13	59,39
771,31	54,27
771,49	73,73
771,67	86,53
771,85	191,49
772,03	169,98
772,21	29,70
772,38	73,21
772,56	102,40
772,74	89,60
772,92	40,96
773,10	115,71
773,28	99,84
773,46	27,14
773,64	80,38
773,82	73,73
774,00	90,11
774,18	157,18
774,36	38,91
774,54	62,98
774,72	86,01
774,90	-15,36
775,08	68,09
775,26	200,70
775,44	58,88
775,62	72,70
775,80	89,60
775,97	90,11
776,15	130,05
776,33	164,86
776,51	62,98
776,69	102,91
776,87	128,00
777,05	112,13
777,23	152,06
777,41	-21,50
777,59	-23,04
777,77	44,03
777,95	132,61
778,13	71,68
778,30	131,58
778,48	168,45
778,66	153,60
778,84	72,19
779,02	45,57
779,20	96,25
779,38	144,38
779,56	123,90
779,74	60,42
779,92	58,37
780,09	93,18
780,27	81,92
780,45	2,56
780,63	105,47
780,81	108,03
780,99	79,36
781,17	149,50
781,35	48,13
781,52	110,59
781,70	125,44
781,88	148,48
782,06	177,15
782,24	141,31
782,42	132,09
782,60	101,37
782,78	49,15
782,95	143,36
783,13	86,01
783,31	68,09
783,49	138,24
783,67	101,37
783,85	113,15
784,03	71,17
784,20	31,23
784,38	86,01
784,56	88,06
784,74	58,88
784,92	61,44
785,10	120,83
785,28	131,58
785,45	175,61
785,63	125,95
785,81	84,99
785,99	72,70
786,17	161,28
786,35	96,25
786,52	81,41
786,70	93,18
786,88	41,98
787,06	87,55
787,24	131,07
787,41	115,20
787,59	113,66
787,77	83,45
787,95	15,36
788,13	94,21
788,31	22,53
788,48	72,19
788,66	54,27
788,84	38,91
789,02	133,12
789,20	95,23
789,37	84,99
789,55	189,44
789,73	111,10
789,91	138,24
790,09	115,71
790,26	88,57
790,44	66,05
790,62	16,90
790,80	141,31
790,98	144,38
791,15	151,04
791,33	127,49
791,51	97,79
791,69	45,57
791,86	137,21
792,04	140,80
792,22	92,67
792,40	41,98
792,58	30,21
792,75	103,42
792,93	134,65
793,11	38,91
793,29	82,43
793,46	107,01
793,64	136,70
793,82	101,37
794,00	84,99
794,17	165,89
794,35	51,20
794,53	131,07
794,71	67,07
794,88	38,40
795,06	31,74
795,24	145,92
795,42	164,35
795,59	90,62
795,77	101,37
795,95	46,59
796,13	88,06
796,30	78,33
796,48	136,19
796,66	147,97
796,83	149,50
797,01	115,20
797,19	6,14
797,37	141,31
797,54	81,92
797,72	44,54
797,90	193,02
798,08	21,50
798,25	35,33
798,43	142,85
798,61	95,74
798,78	93,18
798,96	104,45
799,14	60,42
799,31	110,59
799,49	80,38
799,67	19,97
799,85	177,15
800,02	123,90
800,20	47,62
800,38	31,23
800,55	84,48
800,73	75,26
800,91	77,31
801,08	101,89
801,26	116,22
801,44	87,55
801,61	163,33
801,79	94,21
801,97	86,01
802,15	51,20
802,32	8,70
802,50	100,86
802,68	114,69
802,85	138,75
803,03	136,19
803,21	98,30
803,38	118,27
803,56	98,81
803,74	19,97
803,91	101,89
804,09	129,02
804,26	167,42
804,44	114,69
804,62	95,23
804,79	119,29
804,97	50,69
805,15	97,28
805,32	50,69
805,50	123,39
805,68	101,89
805,85	55,30
806,03	93,18
806,21	137,73
806,38	36,86
806,56	76,80
806,73	99,84
806,91	153,60
807,09	76,29
807,26	74,24
807,44	117,76
807,62	132,09
807,79	107,52
807,97	112,64
808,14	95,74
808,32	134,65
808,50	74,24
808,67	59,90
808,85	67,58
809,02	174,08
809,20	90,11
809,38	77,82
809,55	13,31
809,73	103,42
809,90	88,06
810,08	200,19
810,26	94,21
810,43	105,98
810,61	97,28
810,78	78,85
810,96	52,22
811,14	74,24
811,31	56,83
811,49	11,78
811,66	82,94
811,84	41,47
812,02	89,60
812,19	154,62
812,37	116,73
812,54	178,17
812,72	123,90
812,89	132,09
813,07	119,29
813,25	154,62
813,42	117,76
813,60	179,20
813,77	247,80
813,95	130,05
814,12	30,72
814,30	85,50
814,47	102,40
814,65	76,80
814,83	91,65
815,00	137,21
815,18	134,14
815,35	76,29
815,53	254,46
815,70	85,50
815,88	152,06
816,05	101,89
816,23	65,54
816,40	131,58
816,58	104,45
816,75	37,89
816,93	127,49
817,10	107,52
817,28	83,97
817,46	54,78
817,63	77,82
817,81	136,19
817,98	17,41
818,16	105,47
818,33	66,56
818,51	82,94
818,68	123,39
818,86	204,80
819,03	190,97
819,21	122,37
819,38	125,44
819,56	59,39
819,73	54,78
819,91	118,78
820,08	75,77
820,26	74,24
820,43	194,05
820,61	45,06
820,78	21,50
820,96	42,50
821,13	120,83
821,31	149,50
821,48	37,89
821,66	159,74
821,83	116,22
822,00	29,70
822,18	84,48
822,35	72,70
822,53	155,65
822,70	78,33
822,88	146,43
823,05	139,77
823,23	103,42
823,40	18,94
823,58	118,27
823,75	34,30
823,93	65,53
824,10	33,28
824,28	18,94
824,45	96,77
824,62	31,23
824,80	90,62
824,97	115,71
825,15	131,58
825,32	77,31
825,50	143,36
825,67	111,61
825,85	174,59
826,02	57,34
826,19	96,25
826,37	155,65
826,54	113,66
826,72	64,00
826,89	62,98
827,07	27,65
827,24	159,74
827,41	119,29
827,59	120,32
827,76	78,85
827,94	14,85
828,11	195,07
828,28	78,33
828,46	114,17
828,63	131,58
828,81	101,37
828,98	117,25
829,15	164,35
829,33	46,59
829,50	72,70
829,68	77,82
829,85	114,69
830,02	119,29
830,20	115,71
830,37	103,93
830,55	132,09
830,72	127,49
830,89	70,65
831,07	36,86
831,24	153,60
831,42	103,42
831,59	41,47
831,76	51,20
831,94	78,33
832,11	136,19
832,28	172,03
832,46	55,30
832,63	78,33
832,81	137,73
832,98	133,12
833,15	120,32
833,33	82,94
833,50	117,76
833,67	93,69
833,85	100,35
834,02	113,66
834,19	27,65
834,37	90,62
834,54	125,95
834,71	62,98
834,89	156,67
835,06	95,74
835,23	94,21
835,41	76,80
835,58	144,38
835,75	84,48
835,93	69,63
836,10	119,81
836,27	73,21
836,45	198,14
836,62	81,92
836,79	122,37
836,97	141,82
837,14	179,20
837,31	95,74
837,49	124,41
837,66	95,23
837,83	104,96
838,01	60,42
838,18	125,44
838,35	60,42
838,53	132,61
838,70	62,46
838,87	84,48
839,04	22,53
839,22	238,08
839,39	36,86
839,56	72,19
839,74	124,93
839,91	59,90
840,08	153,09
840,26	124,93
840,43	66,56
840,60	117,76
840,77	93,18
840,95	180,73
841,12	113,15
841,29	95,23
841,46	153,60
841,64	120,32
841,81	110,59
841,98	40,96
842,16	99,84
842,33	99,33
842,50	119,29
842,67	41,98
842,85	85,50
843,02	134,65
843,19	112,13
843,36	113,15
843,54	112,13
843,71	109,57
843,88	83,97
844,05	12,29
844,23	87,55
844,40	74,24
844,57	88,06
844,74	155,65
844,92	93,18
845,09	61,44
845,26	93,69
845,43	-1,02
845,61	75,26
845,78	196,09
845,95	99,33
846,12	192,00
846,29	149,50
846,47	167,93
846,64	57,34
846,81	-13,31
846,98	-7,68
847,16	70,65
847,33	104,96
847,50	96,25
847,67	17,41
847,84	74,24
848,02	73,73
848,19	53,25
848,36	77,82
848,53	65,53
848,70	103,93
848,88	72,70
849,05	155,13
849,22	117,76
849,39	38,91
849,56	18,94
849,74	76,29
849,91	114,69
850,08	103,42
850,25	34,82
850,42	143,36
850,60	116,73
850,77	122,37
850,94	102,40
851,11	163,33
851,28	131,58
851,45	122,37
851,63	137,73
851,80	123,39
851,97	59,90
852,14	198,65
852,31	127,49
852,48	79,87
852,66	66,05
852,83	129,02
853,00	93,69
853,17	80,89
853,34	115,71
853,51	117,25
853,68	94,21
853,86	128,51
854,03	138,75
854,20	87,04
854,37	59,39
854,54	150,01
854,71	103,93
854,88	125,44
855,06	133,63
855,23	139,26
855,40	116,22
855,57	9,73
855,74	123,90
855,91	114,69
856,08	101,89
856,25	135,17
856,43	57,86
856,60	62,98
856,77	144,38
856,94	96,25
857,11	77,31
857,28	104,45
857,45	152,06
857,62	74,75
857,79	133,12
857,97	168,96
858,14	84,48
858,31	193,53
858,48	139,26
858,65	100,86
858,82	22,53
858,99	72,19
859,16	26,11
859,33	4,10
859,50	111,61
859,67	45,57
859,85	115,20
860,02	21,50
860,19	74,75
860,36	44,54
860,53	128,00
860,70	129,02
860,87	117,25
861,04	151,04
861,21	155,13
861,38	189,44
861,55	100,86
861,72	84,48
861,89	140,80
862,06	88,57
862,23	98,81
862,41	103,42
862,58	100,35
862,75	99,33
862,92	180,22
863,09	55,30
863,26	73,73
863,43	98,81
863,60	137,21
863,77	109,05
863,94	60,42
864,11	141,31
864,28	51,20
864,45	38,91
864,62	172,03
864,79	136,70
864,96	139,26
865,13	128,51
865,30	61,95
865,47	167,42
865,64	-8,19
865,81	113,66
865,98	183,29
866,15	57,34
866,32	210,94
866,49	129,02
866,66	165,37
866,83	108,54
867,00	77,82
867,17	165,37
867,34	50,69
867,51	162,30
867,68	49,66
867,85	173,57
868,02	120,32
868,19	46,08
868,36	125,44
868,53	123,90
868,70	75,77
868,87	82,94
869,04	203,26
869,21	96,25
869,38	105,98
869,55	75,77
869,72	168,96
869,89	72,70
870,06	121,85
870,23	66,05
870,40	83,45
870,57	112,64
870,74	49,15
870,91	114,17
871,08	22,53
871,25	127,49
871,42	98,30
871,59	137,73
871,76	82,43
871,93	17,41
872,10	89,09
872,27	160,25
872,44	64,00
872,60	76,29
872,77	145,41
872,94	92,16
873,11	101,37
873,28	135,17
873,45	111,10
873,62	131,07
873,79	61,95
873,96	16,90
874,13	124,41
874,30	20,99
874,47	148,48
874,64	178,69
874,81	50,69
874,97	95,74
875,14	122,37
875,31	70,65
875,48	122,37
875,65	127,49
875,82	69,63
875,99	127,49
876,16	153,60
876,33	175,10
876,50	104,96
876,67	116,22
876,83	79,36
877,00	69,12
877,17	158,72
877,34	4,10
877,51	75,77
877,68	119,29
877,85	13,31
878,02	40,45
878,19	96,25
878,35	89,09
878,52	129,53
878,69	55,30
878,86	49,15
879,03	45,57
879,20	158,21
879,37	129,02
879,54	105,47
879,70	107,52
879,87	99,84
880,04	123,39
880,21	75,26
880,38	122,37
880,55	103,42
880,72	139,26
880,89	39,42
881,05	159,74
881,22	99,33
881,39	96,77
881,56	142,33
881,73	53,25
881,90	132,09
882,06	68,09
882,23	10,24
882,40	47,10
882,57	113,66
882,74	81,41
882,91	173,57
883,07	46,08
883,24	149,50
883,41	59,39
883,58	69,63
883,75	94,21
883,92	47,62
884,08	70,14
884,25	60,93
884,42	80,38
884,59	127,49
884,76	130,05
884,92	48,13
885,09	130,56
885,26	105,98
885,43	106,49
885,60	83,97
885,76	88,57
885,93	29,70
886,10	141,82
886,27	104,45
886,44	137,73
886,60	179,71
886,77	98,81
886,94	92,16
887,11	76,80
887,28	117,76
887,44	161,28
887,61	65,54
887,78	114,69
887,95	75,77
888,12	147,45
888,28	119,81
888,45	151,55
888,62	56,32
888,79	83,97
888,95	77,82
889,12	100,35
889,29	125,44
889,46	51,71
889,62	160,25
889,79	146,94
889,96	105,98
890,13	101,89
890,29	148,99
890,46	147,97
890,63	91,65
890,80	103,93
890,96	93,69
891,13	86,53
891,30	89,60
891,47	44,03
891,63	223,23
891,80	155,65
891,97	118,27
892,14	99,84
892,30	124,41
892,47	182,78
892,64	88,57
892,80	100,86
892,97	55,30
893,14	99,33
893,31	126,97
893,47	61,44
893,64	168,45
893,81	136,70
893,97	161,28
894,14	167,42
>>>>>End Processed Spectral Data<<<<<
