SpectraSuite Datei
++++++++++++++++++++++++++++++++++++
Datum: Mon Dec 11 15:16:58 CET 2017
Benutzer: Praktikum-Pc1
Dark-Spektrum vorhanden: Ja
Referenz-Spektrum vorhanden: Nein
Zahl der probierten Teilspektren: 1
Spektrometer: USB4H10187
Integrationszeit (usec): 150000 (USB4H10187)
Spektren Durchschnitt berechnet: 1 (USB4H10187)
Boxcar Glättung: 0 (USB4H10187)
Dunkelstromkorrektur: Nein (USB4H10187)
Puls/Lampe aktiviert: Nein (USB4H10187)
Correct for Detector Non-linearity: Nein (USB4H10187)
Streulichtkorrektur: Nein (USB4H10187)
Anzahl Pixel in verarbeitetem Spektrum: 3648
>>>>>Begin Processed Spectral Data<<<<<
176,80	4,10
177,02	4,10
177,24	4,10
177,46	59,39
177,68	0,00
177,91	108,54
178,13	178,17
178,35	131,07
178,57	63,49
178,79	141,31
179,02	212,99
179,24	90,11
179,46	112,64
179,68	59,39
179,90	108,54
180,12	131,07
180,35	61,44
180,57	63,49
180,79	108,54
181,01	75,77
181,23	63,49
181,46	172,03
181,68	139,26
181,90	151,55
182,12	141,31
182,34	118,78
182,56	-14,34
182,79	-16,38
183,01	159,74
183,23	96,25
183,45	86,01
183,67	8,19
183,89	81,92
184,12	88,06
184,34	104,45
184,56	180,22
184,78	100,35
185,00	174,08
185,22	75,77
185,45	75,77
185,67	81,92
185,89	172,03
186,11	90,11
186,33	116,73
186,55	196,61
186,77	186,37
187,00	190,46
187,22	124,93
187,44	55,30
187,66	98,30
187,88	79,87
188,10	188,41
188,32	53,25
188,55	143,36
188,77	145,41
188,99	155,65
189,21	167,93
189,43	102,40
189,65	49,15
189,87	88,06
190,10	223,23
190,32	145,41
190,54	53,25
190,76	163,84
190,98	90,11
191,20	188,41
191,42	112,64
191,64	57,34
191,87	126,97
192,09	53,25
192,31	88,06
192,53	108,54
192,75	135,17
192,97	28,67
193,19	116,73
193,41	51,20
193,64	131,07
193,86	112,64
194,08	131,07
194,30	32,77
194,52	129,02
194,74	206,84
194,96	12,29
195,18	149,50
195,40	63,49
195,63	55,30
195,85	-18,43
196,07	-4,10
196,29	112,64
196,51	92,16
196,73	155,65
196,95	100,35
197,17	88,06
197,39	73,73
197,61	133,12
197,84	92,16
198,06	43,01
198,28	98,30
198,50	34,82
198,72	83,97
198,94	194,56
199,16	139,26
199,38	190,46
199,60	18,43
199,82	63,49
200,04	110,59
200,26	75,77
200,49	63,49
200,71	90,11
200,93	180,22
201,15	4,10
201,37	65,54
201,59	47,10
201,81	122,88
202,03	194,56
202,25	88,06
202,47	172,03
202,69	110,59
202,91	139,26
203,13	98,30
203,35	110,59
203,58	16,38
203,80	192,51
204,02	-22,53
204,24	43,01
204,46	149,50
204,68	145,41
204,90	102,40
205,12	65,53
205,34	122,88
205,56	159,74
205,78	167,93
206,00	133,12
206,22	71,68
206,44	167,93
206,66	-14,34
206,88	104,45
207,10	88,06
207,32	182,27
207,54	215,04
207,76	67,58
207,99	104,45
208,21	38,91
208,43	141,31
208,65	12,29
208,87	178,17
209,09	55,30
209,31	59,39
209,53	-32,77
209,75	202,75
209,97	151,55
210,19	69,63
210,41	75,77
210,63	77,82
210,85	92,16
211,07	137,21
211,29	114,69
211,51	202,75
211,73	145,41
211,95	178,17
212,17	92,16
212,39	131,07
212,61	174,08
212,83	102,40
213,05	133,12
213,27	237,56
213,49	153,60
213,71	120,83
213,93	151,55
214,15	153,60
214,37	135,17
214,59	141,31
214,81	71,68
215,03	-16,38
215,25	71,68
215,47	79,87
215,69	38,91
215,91	149,50
216,13	81,92
216,35	92,16
216,57	75,77
216,79	143,36
217,01	145,41
217,23	88,06
217,45	88,06
217,67	210,94
217,89	182,27
218,11	100,35
218,33	67,58
218,55	137,21
218,77	133,12
218,99	96,25
219,21	116,73
219,43	157,69
219,65	167,93
219,87	141,31
220,09	178,17
220,31	100,35
220,53	94,21
220,75	-32,77
220,97	112,64
221,19	65,54
221,41	83,97
221,63	135,17
221,85	137,21
222,06	100,35
222,28	188,41
222,50	100,35
222,72	137,21
222,94	59,39
223,16	86,01
223,38	114,69
223,60	40,96
223,82	122,88
224,04	223,23
224,26	88,06
224,48	88,06
224,70	133,12
224,92	94,21
225,14	86,01
225,36	153,60
225,58	43,01
225,80	157,69
226,02	163,84
226,24	96,25
226,45	129,02
226,67	34,82
226,89	38,91
227,11	104,45
227,33	100,35
227,55	-4,10
227,77	94,21
227,99	43,01
228,21	92,16
228,43	86,01
228,65	57,34
228,87	131,07
229,09	-32,77
229,31	43,01
229,52	6,14
229,74	-53,25
229,96	67,58
230,18	73,73
230,40	129,02
230,62	59,39
230,84	186,37
231,06	-18,43
231,28	8,19
231,50	36,86
231,72	114,69
231,94	18,43
232,15	88,06
232,37	73,73
232,59	4,10
232,81	229,37
233,03	57,34
233,25	108,54
233,47	55,30
233,69	63,49
233,91	34,82
234,13	90,11
234,34	102,40
234,56	55,30
234,78	192,51
235,00	-8,19
235,22	38,91
235,44	4,10
235,66	45,06
235,88	106,49
236,10	116,73
236,31	118,78
236,53	122,88
236,75	96,25
236,97	12,29
237,19	161,79
237,41	122,88
237,63	153,60
237,85	79,87
238,07	116,73
238,28	55,30
238,50	102,40
238,72	100,35
238,94	178,17
239,16	141,31
239,38	45,06
239,60	135,17
239,81	59,39
240,03	81,92
240,25	6,14
240,47	98,30
240,69	104,45
240,91	131,07
241,13	221,18
241,34	135,17
241,56	83,97
241,78	49,15
242,00	-6,14
242,22	79,87
242,44	163,84
242,66	18,43
242,87	116,73
243,09	139,26
243,31	86,01
243,53	73,73
243,75	116,73
243,97	22,53
244,19	57,34
244,40	147,45
244,62	188,41
244,84	217,08
245,06	118,78
245,28	77,82
245,50	137,21
245,71	69,63
245,93	53,25
246,15	149,50
246,37	26,62
246,59	196,61
246,81	104,45
247,02	36,86
247,24	198,65
247,46	59,39
247,68	133,12
247,90	133,12
248,11	106,49
248,33	98,30
248,55	135,17
248,77	24,58
248,99	153,60
249,21	-18,43
249,42	114,69
249,64	178,17
249,86	139,26
250,08	63,49
250,30	114,69
250,51	124,93
250,73	-34,82
250,95	90,11
251,17	145,41
251,39	88,06
251,60	133,12
251,82	196,60
252,04	161,79
252,26	83,97
252,48	94,21
252,69	172,03
252,91	200,70
253,13	55,30
253,35	169,98
253,57	143,36
253,78	129,02
254,00	133,12
254,22	26,62
254,44	114,69
254,65	77,82
254,87	71,68
255,09	135,17
255,31	53,25
255,53	96,25
255,74	104,45
255,96	45,06
256,18	141,31
256,40	141,31
256,61	63,49
256,83	245,76
257,05	110,59
257,27	270,33
257,48	26,62
257,70	81,92
257,92	129,02
258,14	137,21
258,36	61,44
258,57	182,27
258,79	131,07
259,01	96,25
259,23	69,63
259,44	4,10
259,66	131,07
259,88	124,93
260,10	129,02
260,31	112,64
260,53	104,45
260,75	75,77
260,97	100,35
261,18	139,26
261,40	200,70
261,62	49,15
261,84	202,75
262,05	135,17
262,27	118,78
262,49	36,86
262,71	81,92
262,92	174,08
263,14	83,97
263,36	120,83
263,57	169,98
263,79	141,31
264,01	161,79
264,23	141,31
264,44	83,97
264,66	69,63
264,88	149,50
265,10	86,01
265,31	204,80
265,53	34,82
265,75	122,88
265,96	112,64
266,18	178,17
266,40	135,17
266,62	90,11
266,83	81,92
267,05	83,97
267,27	153,60
267,48	251,90
267,70	16,38
267,92	69,63
268,14	137,21
268,35	118,78
268,57	157,69
268,79	165,89
269,00	120,83
269,22	102,40
269,44	135,17
269,65	51,20
269,87	67,58
270,09	159,74
270,31	106,49
270,52	133,12
270,74	208,89
270,96	-6,14
271,17	116,73
271,39	-4,10
271,61	143,36
271,82	163,84
272,04	131,07
272,26	26,62
272,47	153,60
272,69	88,06
272,91	16,38
273,12	122,88
273,34	202,75
273,56	112,64
273,77	106,49
273,99	167,93
274,21	229,37
274,42	137,21
274,64	231,42
274,86	53,25
275,08	124,93
275,29	59,39
275,51	172,03
275,72	104,45
275,94	174,08
276,16	53,25
276,37	79,87
276,59	83,97
276,81	55,30
277,02	124,93
277,24	102,40
277,46	104,45
277,67	34,82
277,89	153,60
278,11	180,22
278,32	159,74
278,54	12,29
278,76	245,76
278,97	147,45
279,19	49,15
279,41	59,39
279,62	122,88
279,84	169,98
280,05	59,39
280,27	73,73
280,49	92,16
280,70	90,11
280,92	100,35
281,14	100,35
281,35	-73,73
281,57	36,86
281,79	6,14
282,00	165,89
282,22	208,89
282,43	141,31
282,65	102,40
282,87	-24,58
283,08	126,97
283,30	233,47
283,52	270,33
283,73	61,44
283,95	178,17
284,16	67,58
284,38	131,07
284,60	165,89
284,81	79,87
285,03	106,49
285,24	59,39
285,46	65,54
285,68	59,39
285,89	122,88
286,11	129,02
286,32	135,17
286,54	137,21
286,76	83,97
286,97	208,89
287,19	108,54
287,40	73,73
287,62	155,65
287,84	108,54
288,05	102,40
288,27	100,35
288,48	61,44
288,70	81,92
288,92	98,30
289,13	129,02
289,35	112,64
289,56	157,69
289,78	165,89
289,99	92,16
290,21	122,88
290,43	108,54
290,64	30,72
290,86	106,49
291,07	63,49
291,29	47,10
291,51	129,02
291,72	139,26
291,94	100,35
292,15	86,01
292,37	120,83
292,58	96,25
292,80	229,37
293,01	112,64
293,23	75,77
293,45	237,56
293,66	106,49
293,88	219,13
294,09	22,53
294,31	106,49
294,52	100,35
294,74	51,20
294,96	110,59
295,17	120,83
295,39	159,74
295,60	133,12
295,82	86,01
296,03	126,97
296,25	59,39
296,46	110,59
296,68	102,40
296,89	49,15
297,11	38,91
297,32	188,41
297,54	159,74
297,76	102,40
297,97	77,82
298,19	98,30
298,40	116,73
298,62	178,17
298,83	153,60
299,05	167,93
299,26	53,25
299,48	94,21
299,69	135,17
299,91	75,77
300,12	190,46
300,34	116,73
300,55	165,89
300,77	106,49
300,98	16,38
301,20	47,10
301,41	63,49
301,63	122,88
301,84	73,73
302,06	147,45
302,28	36,86
302,49	59,39
302,71	198,65
302,92	-8,19
303,14	124,93
303,35	149,50
303,57	81,92
303,78	172,03
304,00	147,45
304,21	69,63
304,43	86,01
304,64	86,01
304,86	59,39
305,07	157,69
305,29	165,89
305,50	51,20
305,71	122,88
305,93	106,49
306,14	192,51
306,36	135,17
306,57	149,50
306,79	153,60
307,00	55,30
307,22	145,41
307,43	71,68
307,65	184,32
307,86	108,54
308,08	126,97
308,29	139,26
308,51	57,34
308,72	69,63
308,94	71,68
309,15	75,77
309,37	53,25
309,58	71,68
309,80	112,64
310,01	108,54
310,22	71,68
310,44	110,59
310,65	155,65
310,87	147,45
311,08	131,07
311,30	-18,43
311,51	147,45
311,73	110,59
311,94	12,29
312,16	26,62
312,37	157,69
312,58	106,49
312,80	63,49
313,01	34,82
313,23	92,16
313,44	94,21
313,66	94,21
313,87	133,12
314,09	0,00
314,30	104,45
314,51	135,17
314,73	79,87
314,94	151,55
315,16	116,73
315,37	81,92
315,59	12,29
315,80	73,73
316,01	143,36
316,23	90,11
316,44	141,31
316,66	167,93
316,87	157,69
317,09	108,54
317,30	141,31
317,51	83,97
317,73	176,13
317,94	2,05
318,16	104,45
318,37	77,82
318,58	-120,83
318,80	92,16
319,01	63,49
319,23	239,61
319,44	34,82
319,66	79,87
319,87	133,12
320,08	200,70
320,30	155,65
320,51	53,25
320,73	75,77
320,94	45,06
321,15	94,21
321,37	86,01
321,58	100,35
321,80	178,17
322,01	34,82
322,22	14,34
322,44	45,06
322,65	180,22
322,86	106,49
323,08	139,26
323,29	155,65
323,51	110,59
323,72	61,44
323,93	145,41
324,15	86,01
324,36	116,73
324,58	169,98
324,79	131,07
325,00	161,79
325,22	108,54
325,43	38,91
325,64	145,41
325,86	75,77
326,07	49,15
326,28	131,07
326,50	151,55
326,71	106,49
326,93	36,86
327,14	106,49
327,35	73,73
327,57	157,69
327,78	104,45
327,99	155,65
328,21	55,30
328,42	227,32
328,63	104,45
328,85	200,70
329,06	100,35
329,27	143,36
329,49	75,77
329,70	65,54
329,91	157,69
330,13	45,06
330,34	145,41
330,56	-4,10
330,77	69,63
330,98	169,98
331,20	120,83
331,41	178,17
331,62	122,88
331,84	96,25
332,05	73,73
332,26	208,89
332,48	153,60
332,69	149,50
332,90	147,45
333,11	49,15
333,33	90,11
333,54	145,41
333,75	106,49
333,97	28,67
334,18	147,45
334,39	145,41
334,61	106,49
334,82	202,75
335,03	133,12
335,25	118,78
335,46	139,26
335,67	161,79
335,89	143,36
336,10	118,78
336,31	124,93
336,53	129,02
336,74	98,30
336,95	186,37
337,16	24,58
337,38	61,44
337,59	272,38
337,80	88,06
338,02	73,73
338,23	188,41
338,44	18,43
338,65	92,16
338,87	137,21
339,08	137,21
339,29	139,26
339,51	104,45
339,72	131,07
339,93	167,93
340,14	163,84
340,36	108,54
340,57	106,49
340,78	131,07
341,00	49,15
341,21	116,73
341,42	186,37
341,63	67,58
341,85	67,58
342,06	114,69
342,27	147,45
342,49	86,01
342,70	188,41
342,91	102,40
343,12	67,58
343,34	129,02
343,55	102,40
343,76	122,88
343,97	53,25
344,19	180,22
344,40	96,25
344,61	92,16
344,82	73,73
345,04	28,67
345,25	139,26
345,46	124,93
345,67	172,03
345,89	53,25
346,10	145,41
346,31	86,01
346,52	59,39
346,74	43,01
346,95	212,99
347,16	61,44
347,37	57,34
347,59	104,45
347,80	67,58
348,01	120,83
348,22	135,17
348,43	149,50
348,65	86,01
348,86	210,94
349,07	184,32
349,28	55,30
349,50	118,78
349,71	77,82
349,92	112,64
350,13	141,31
350,34	38,91
350,56	45,06
350,77	174,08
350,98	98,30
351,19	124,93
351,41	221,18
351,62	208,89
351,83	18,43
352,04	180,22
352,25	98,30
352,47	79,87
352,68	176,13
352,89	4,10
353,10	217,08
353,31	137,21
353,53	251,90
353,74	90,11
353,95	79,87
354,16	112,64
354,37	131,07
354,59	153,60
354,80	198,65
355,01	32,77
355,22	26,62
355,43	83,97
355,65	28,67
355,86	202,75
356,07	86,01
356,28	88,06
356,49	61,44
356,70	157,69
356,92	94,21
357,13	32,77
357,34	112,64
357,55	153,60
357,76	163,84
357,98	108,54
358,19	69,63
358,40	114,69
358,61	77,82
358,82	178,17
359,03	135,17
359,25	139,26
359,46	161,79
359,67	69,63
359,88	112,64
360,09	135,17
360,30	104,45
360,51	18,43
360,73	139,26
360,94	81,92
361,15	59,39
361,36	124,93
361,57	139,26
361,78	122,88
362,00	139,26
362,21	88,06
362,42	192,51
362,63	102,40
362,84	106,49
363,05	55,30
363,26	92,16
363,48	129,02
363,69	145,41
363,90	57,34
364,11	32,77
364,32	30,72
364,53	75,77
364,74	90,11
364,95	14,34
365,17	10,24
365,38	129,02
365,59	176,13
365,80	169,98
366,01	57,34
366,22	137,21
366,43	63,49
366,64	100,35
366,86	110,59
367,07	92,16
367,28	172,03
367,49	98,30
367,70	188,41
367,91	112,64
368,12	-24,58
368,33	59,39
368,54	178,17
368,76	75,77
368,97	45,06
369,18	59,39
369,39	79,87
369,60	-10,24
369,81	96,25
370,02	135,17
370,23	94,21
370,44	6,14
370,65	6,14
370,87	55,30
371,08	153,60
371,29	90,11
371,50	145,41
371,71	102,40
371,92	169,98
372,13	86,01
372,34	73,73
372,55	53,25
372,76	131,07
372,97	112,64
373,18	135,17
373,40	102,40
373,61	96,25
373,82	104,45
374,03	110,59
374,24	116,73
374,45	-28,67
374,66	77,82
374,87	165,89
375,08	65,54
375,29	71,68
375,50	153,60
375,71	75,77
375,92	104,45
376,13	18,43
376,34	71,68
376,56	139,26
376,77	108,54
376,98	149,50
377,19	139,26
377,40	108,54
377,61	112,64
377,82	83,97
378,03	180,22
378,24	98,30
378,45	147,45
378,66	28,67
378,87	86,01
379,08	120,83
379,29	116,73
379,50	133,12
379,71	129,02
379,92	94,21
380,13	4,10
380,34	135,17
380,55	79,87
380,76	159,74
380,97	190,46
381,18	67,58
381,39	143,36
381,60	131,07
381,81	67,58
382,02	88,06
382,24	90,11
382,45	24,58
382,66	65,54
382,87	178,17
383,08	147,45
383,29	100,35
383,50	163,84
383,71	73,73
383,92	83,97
384,13	139,26
384,34	139,26
384,55	12,29
384,76	53,25
384,97	77,82
385,18	12,29
385,39	71,68
385,60	16,38
385,81	100,35
386,02	155,65
386,23	145,41
386,44	96,25
386,65	77,82
386,86	73,73
387,07	135,17
387,28	67,58
387,49	106,49
387,70	96,25
387,91	147,45
388,12	172,03
388,32	2,05
388,53	98,30
388,74	71,68
388,95	120,83
389,16	36,86
389,37	116,73
389,58	129,02
389,79	131,07
390,00	114,69
390,21	61,44
390,42	106,49
390,63	126,97
390,84	38,91
391,05	163,84
391,26	194,56
391,47	28,67
391,68	51,20
391,89	120,83
392,10	155,65
392,31	163,84
392,52	86,01
392,73	30,72
392,94	147,45
393,15	32,77
393,36	120,83
393,57	126,97
393,78	120,83
393,98	110,59
394,19	102,40
394,40	225,28
394,61	30,72
394,82	139,26
395,03	126,97
395,24	145,41
395,45	18,43
395,66	131,07
395,87	2,05
396,08	49,15
396,29	145,41
396,50	116,73
396,71	57,34
396,92	108,54
397,12	90,11
397,33	172,03
397,54	40,96
397,75	71,68
397,96	169,98
398,17	71,68
398,38	77,82
398,59	71,68
398,80	-14,34
399,01	204,80
399,22	106,49
399,43	104,45
399,63	153,60
399,84	116,73
400,05	90,11
400,26	153,60
400,47	71,68
400,68	59,39
400,89	153,60
401,10	88,06
401,31	172,03
401,52	49,15
401,72	153,60
401,93	86,01
402,14	75,77
402,35	116,73
402,56	135,17
402,77	55,30
402,98	133,12
403,19	36,86
403,40	86,01
403,60	141,31
403,81	147,45
404,02	98,30
404,23	182,27
404,44	129,02
404,65	120,83
404,86	155,65
405,07	102,40
405,27	131,07
405,48	38,91
405,69	57,34
405,90	141,31
406,11	167,93
406,32	69,63
406,53	104,45
406,74	151,55
406,94	73,73
407,15	120,83
407,36	14,34
407,57	167,93
407,78	110,59
407,99	18,43
408,20	106,49
408,40	67,58
408,61	86,01
408,82	184,32
409,03	47,10
409,24	118,78
409,45	96,25
409,65	147,45
409,86	104,45
410,07	14,34
410,28	110,59
410,49	106,49
410,70	147,45
410,90	104,45
411,11	67,58
411,32	57,34
411,53	102,40
411,74	131,07
411,95	94,21
412,15	208,89
412,36	-24,58
412,57	135,17
412,78	104,45
412,99	112,64
413,20	43,01
413,40	106,49
413,61	145,41
413,82	124,93
414,03	137,21
414,24	233,47
414,44	178,17
414,65	30,72
414,86	32,77
415,07	79,87
415,28	102,40
415,48	137,21
415,69	90,11
415,90	106,49
416,11	194,56
416,32	104,45
416,53	45,06
416,73	192,51
416,94	184,32
417,15	79,87
417,36	88,06
417,56	208,89
417,77	73,73
417,98	45,06
418,19	206,84
418,40	124,93
418,60	118,78
418,81	86,01
419,02	102,40
419,23	-4,10
419,44	53,25
419,64	104,45
419,85	112,64
420,06	141,31
420,27	126,97
420,47	34,82
420,68	98,30
420,89	67,58
421,10	59,39
421,30	241,66
421,51	114,69
421,72	122,88
421,93	4,10
422,14	219,13
422,34	186,37
422,55	8,19
422,76	47,10
422,97	-30,72
423,17	221,18
423,38	43,01
423,59	104,45
423,80	114,69
424,00	71,68
424,21	163,84
424,42	38,91
424,63	77,82
424,83	75,77
425,04	116,73
425,25	0,00
425,46	151,55
425,66	198,65
425,87	79,87
426,08	131,07
426,28	120,83
426,49	151,55
426,70	161,79
426,91	124,93
427,11	159,74
427,32	120,83
427,53	167,93
427,74	81,92
427,94	53,25
428,15	165,89
428,36	169,98
428,56	96,25
428,77	139,26
428,98	43,01
429,19	145,41
429,39	143,36
429,60	100,35
429,81	122,88
430,01	163,84
430,22	55,30
430,43	94,21
430,64	6,14
430,84	18,43
431,05	118,78
431,26	63,49
431,46	139,26
431,67	4,10
431,88	133,12
432,08	196,60
432,29	-4,10
432,50	38,91
432,70	202,75
432,91	116,73
433,12	79,87
433,33	151,55
433,53	2,05
433,74	112,64
433,95	110,59
434,15	92,16
434,36	116,73
434,57	112,64
434,77	100,35
434,98	63,49
435,19	108,54
435,39	96,25
435,60	28,67
435,81	124,93
436,01	112,64
436,22	102,40
436,43	118,78
436,63	118,78
436,84	104,45
437,05	-32,77
437,25	-28,67
437,46	182,27
437,67	57,34
437,87	112,64
438,08	49,15
438,29	63,49
438,49	133,12
438,70	94,21
438,91	77,82
439,11	71,68
439,32	176,13
439,52	143,36
439,73	149,50
439,94	145,41
440,14	116,73
440,35	122,88
440,56	22,53
440,76	131,07
440,97	71,68
441,18	63,49
441,38	61,44
441,59	129,02
441,79	45,06
442,00	71,68
442,21	88,06
442,41	83,97
442,62	79,87
442,83	98,30
443,03	34,82
443,24	186,37
443,44	81,92
443,65	96,25
443,86	90,11
444,06	34,82
444,27	102,40
444,48	20,48
444,68	124,93
444,89	26,62
445,09	88,06
445,30	98,30
445,51	108,54
445,71	24,58
445,92	79,87
446,12	45,06
446,33	139,26
446,54	212,99
446,74	139,26
446,95	133,12
447,15	114,69
447,36	67,58
447,57	108,54
447,77	59,39
447,98	143,36
448,18	10,24
448,39	26,62
448,59	122,88
448,80	92,16
449,01	92,16
449,21	34,82
449,42	45,06
449,62	151,55
449,83	40,96
450,04	83,97
450,24	141,31
450,45	139,26
450,65	96,25
450,86	180,22
451,06	163,84
451,27	96,25
451,47	8,19
451,68	145,41
451,89	53,25
452,09	79,87
452,30	45,06
452,50	172,03
452,71	143,36
452,91	102,40
453,12	114,69
453,33	161,79
453,53	14,34
453,74	32,77
453,94	167,93
454,15	81,92
454,35	69,63
454,56	108,54
454,76	149,50
454,97	147,45
455,17	165,89
455,38	139,26
455,58	32,77
455,79	83,97
456,00	221,18
456,20	49,15
456,41	79,87
456,61	65,54
456,82	176,13
457,02	53,25
457,23	147,45
457,43	122,88
457,64	90,11
457,84	8,19
458,05	159,74
458,25	63,49
458,46	131,07
458,66	63,49
458,87	88,06
459,07	73,73
459,28	139,26
459,48	137,21
459,69	59,39
459,89	169,98
460,10	102,40
460,30	120,83
460,51	145,41
460,71	124,93
460,92	143,36
461,12	90,11
461,33	88,06
461,53	51,20
461,74	40,96
461,94	59,39
462,15	120,83
462,35	36,86
462,56	45,06
462,76	83,97
462,97	124,93
463,17	65,53
463,38	155,65
463,58	141,31
463,79	147,45
463,99	63,49
464,20	131,07
464,40	169,98
464,61	90,11
464,81	188,41
465,02	104,45
465,22	59,39
465,43	4,10
465,63	88,06
465,83	96,25
466,04	118,78
466,24	-14,34
466,45	180,22
466,65	139,26
466,86	139,26
467,06	79,87
467,27	104,45
467,47	106,49
467,68	186,37
467,88	51,20
468,08	163,84
468,29	126,97
468,49	139,26
468,70	239,61
468,90	114,69
469,11	212,99
469,31	75,77
469,52	129,02
469,72	92,16
469,92	96,25
470,13	86,01
470,33	194,56
470,54	182,27
470,74	186,37
470,95	141,31
471,15	108,54
471,35	45,06
471,56	92,16
471,76	63,49
471,97	77,82
472,17	20,48
472,38	51,20
472,58	133,12
472,78	141,31
472,99	112,64
473,19	149,50
473,40	57,34
473,60	94,21
473,80	38,91
474,01	147,45
474,21	184,32
474,42	122,88
474,62	129,02
474,83	106,49
475,03	139,26
475,23	94,21
475,44	32,77
475,64	149,50
475,85	36,86
476,05	47,10
476,25	86,01
476,46	124,93
476,66	143,36
476,86	174,08
477,07	208,89
477,27	204,80
477,48	53,25
477,68	139,26
477,88	124,93
478,09	0,00
478,29	135,17
478,50	96,25
478,70	180,22
478,90	20,48
479,11	94,21
479,31	32,77
479,51	141,31
479,72	163,84
479,92	36,86
480,12	155,65
480,33	36,86
480,53	124,93
480,74	71,68
480,94	83,97
481,14	153,60
481,35	98,30
481,55	96,25
481,75	-16,38
481,96	63,49
482,16	8,19
482,36	114,69
482,57	116,73
482,77	83,97
482,97	122,88
483,18	118,78
483,38	96,25
483,58	129,02
483,79	59,39
483,99	176,13
484,19	124,93
484,40	61,44
484,60	96,25
484,80	106,49
485,01	135,17
485,21	118,78
485,41	43,01
485,62	129,02
485,82	98,30
486,02	51,20
486,23	161,79
486,43	51,20
486,63	38,91
486,84	133,12
487,04	96,25
487,24	106,49
487,45	102,40
487,65	36,86
487,85	137,21
488,06	106,49
488,26	24,58
488,46	102,40
488,67	92,16
488,87	40,96
489,07	79,87
489,27	247,80
489,48	79,87
489,68	94,21
489,88	208,89
490,09	135,17
490,29	83,97
490,49	40,96
490,70	122,88
490,90	153,60
491,10	20,48
491,30	141,31
491,51	-30,72
491,71	188,41
491,91	208,89
492,12	59,39
492,32	57,34
492,52	83,97
492,72	120,83
492,93	112,64
493,13	118,78
493,33	106,49
493,53	215,04
493,74	94,21
493,94	55,30
494,14	59,39
494,34	133,12
494,55	43,01
494,75	86,01
494,95	200,70
495,16	184,32
495,36	20,48
495,56	77,82
495,76	104,45
495,97	57,34
496,17	126,97
496,37	122,88
496,57	153,60
496,78	55,30
496,98	96,25
497,18	102,40
497,38	145,41
497,59	63,49
497,79	88,06
497,99	126,97
498,19	67,58
498,39	153,60
498,60	75,77
498,80	47,10
499,00	145,41
499,20	83,97
499,41	106,49
499,61	167,93
499,81	104,45
500,01	137,21
500,22	114,69
500,42	38,91
500,62	184,32
500,82	116,73
501,02	69,63
501,23	114,69
501,43	112,64
501,63	114,69
501,83	49,15
502,03	141,31
502,24	49,15
502,44	32,77
502,64	178,17
502,84	108,54
503,05	104,45
503,25	65,53
503,45	45,06
503,65	153,60
503,85	116,73
504,06	63,49
504,26	90,11
504,46	59,39
504,66	100,35
504,86	188,41
505,06	100,35
505,27	67,58
505,47	96,25
505,67	151,55
505,87	83,97
506,07	145,41
506,28	98,30
506,48	63,49
506,68	94,21
506,88	83,97
507,08	104,45
507,28	163,84
507,49	124,93
507,69	40,96
507,89	122,88
508,09	69,63
508,29	155,65
508,49	88,06
508,70	106,49
508,90	112,64
509,10	75,77
509,30	65,53
509,50	-4,10
509,70	77,82
509,91	202,75
510,11	47,10
510,31	77,82
510,51	4,10
510,71	73,73
510,91	131,07
511,11	108,54
511,32	137,21
511,52	182,27
511,72	135,17
511,92	124,93
512,12	47,10
512,32	-28,67
512,52	90,11
512,73	49,15
512,93	274,43
513,13	106,49
513,33	94,21
513,53	141,31
513,73	133,12
513,93	90,11
514,13	100,35
514,34	61,44
514,54	180,22
514,74	139,26
514,94	145,41
515,14	217,08
515,34	94,21
515,54	96,25
515,74	202,75
515,94	147,45
516,15	194,56
516,35	180,22
516,55	0,00
516,75	141,31
516,95	86,01
517,15	61,44
517,35	55,30
517,55	184,32
517,75	194,56
517,95	143,36
518,16	188,41
518,36	24,58
518,56	63,49
518,76	165,89
518,96	102,40
519,16	81,92
519,36	161,79
519,56	210,94
519,76	157,69
519,96	118,78
520,16	151,55
520,37	57,34
520,57	102,40
520,77	163,84
520,97	129,02
521,17	104,45
521,37	178,17
521,57	149,50
521,77	53,25
521,97	106,49
522,17	65,54
522,37	190,46
522,57	143,36
522,77	57,34
522,97	153,60
523,17	77,82
523,37	55,30
523,58	172,03
523,78	-10,24
523,98	149,50
524,18	172,03
524,38	122,88
524,58	98,30
524,78	149,50
524,98	92,16
525,18	126,97
525,38	36,86
525,58	75,77
525,78	71,68
525,98	112,64
526,18	155,65
526,38	79,87
526,58	40,96
526,78	102,40
526,98	32,77
527,18	135,17
527,38	88,06
527,58	90,11
527,78	79,87
527,98	100,35
528,18	116,73
528,38	110,59
528,58	20,48
528,78	133,12
528,98	96,25
529,18	151,55
529,38	36,86
529,58	137,21
529,78	165,89
529,98	114,69
530,18	-32,77
530,38	165,89
530,58	90,11
530,78	176,13
530,98	106,49
531,18	155,65
531,38	186,37
531,58	192,51
531,78	169,98
531,98	161,79
532,18	182,27
532,38	67,58
532,58	180,22
532,78	18,43
532,98	215,04
533,18	112,64
533,38	163,84
533,58	163,84
533,78	188,41
533,98	100,35
534,18	106,49
534,38	229,37
534,58	83,97
534,78	161,79
534,98	67,58
535,18	124,93
535,38	282,62
535,58	118,78
535,78	47,10
535,98	77,82
536,18	112,64
536,38	149,50
536,58	143,36
536,78	47,10
536,98	159,74
537,18	192,51
537,38	59,39
537,58	215,04
537,78	198,65
537,98	151,55
538,17	217,08
538,37	167,93
538,57	53,25
538,77	122,88
538,97	145,41
539,17	36,86
539,37	137,21
539,57	2,05
539,77	210,94
539,97	61,44
540,17	122,88
540,37	83,97
540,57	116,73
540,77	122,88
540,97	124,93
541,16	155,65
541,36	182,27
541,56	137,21
541,76	141,31
541,96	131,07
542,16	260,09
542,36	18,43
542,56	61,44
542,76	206,84
542,96	65,53
543,16	204,80
543,36	141,31
543,55	100,35
543,75	157,69
543,95	88,06
544,15	165,89
544,35	202,75
544,55	235,52
544,75	69,63
544,95	204,80
545,15	165,89
545,35	221,18
545,54	237,56
545,74	180,22
545,94	188,41
546,14	129,02
546,34	172,03
546,54	180,22
546,74	169,98
546,94	98,30
547,14	176,13
547,33	243,71
547,53	163,84
547,73	133,12
547,93	245,76
548,13	229,37
548,33	151,55
548,53	151,55
548,72	176,13
548,92	274,43
549,12	223,23
549,32	196,61
549,52	231,42
549,72	303,10
549,92	143,36
550,12	153,60
550,31	296,96
550,51	274,43
550,71	303,10
550,91	231,42
551,11	280,57
551,31	221,18
551,50	278,52
551,70	235,52
551,90	210,94
552,10	198,65
552,30	276,48
552,50	282,62
552,70	260,09
552,89	167,93
553,09	315,39
553,29	241,66
553,49	362,49
553,69	376,83
553,88	270,33
554,08	305,15
554,28	331,77
554,48	397,31
554,68	391,16
554,88	329,72
555,07	413,69
555,27	372,73
555,47	356,35
555,67	333,82
555,87	421,88
556,06	399,35
556,26	450,55
556,46	499,70
556,66	507,90
556,86	434,17
557,06	428,03
557,25	421,88
557,45	315,39
557,65	495,61
557,85	530,42
558,05	454,65
558,24	532,47
558,44	526,33
558,64	585,72
558,84	651,25
559,03	610,29
559,23	694,26
559,43	616,44
559,63	645,11
559,83	591,86
560,02	622,58
560,22	737,27
560,42	690,17
560,62	780,28
560,82	702,45
561,01	749,56
561,21	753,65
561,41	720,89
561,61	804,85
561,80	894,96
562,00	788,47
562,20	851,95
562,40	976,88
562,59	962,55
562,79	925,68
562,99	962,55
563,19	991,22
563,38	1077,23
563,58	1085,42
563,78	1007,60
563,98	1103,86
564,17	1179,63
564,37	1179,63
564,57	1243,12
564,77	1277,93
564,96	1300,46
565,16	1327,08
565,36	1372,14
565,56	1429,48
565,75	1343,47
565,95	1466,35
566,15	1495,02
566,35	1456,11
566,54	1478,63
566,74	1578,98
566,94	1642,47
567,14	1759,21
567,33	1767,40
567,53	1945,57
567,73	1828,84
567,92	1888,23
568,12	1832,93
568,32	1970,15
568,52	2050,02
568,71	1888,23
568,91	2029,54
569,11	2234,33
569,30	2183,13
569,50	2371,55
569,70	2322,40
569,90	2285,53
570,09	2488,28
570,29	2666,46
570,49	2666,46
570,68	2783,19
570,88	2723,80
571,08	2879,44
571,27	2895,83
571,47	2971,60
571,67	3209,17
571,87	3080,14
572,06	3235,79
572,26	3319,76
572,46	3493,83
572,65	3452,88
572,85	3674,06
573,05	3725,26
573,24	3860,42
573,44	4036,55
573,64	4130,75
573,83	4349,89
574,03	4401,08
574,23	4620,22
574,42	4626,36
574,62	4843,45
574,82	4995,00
575,01	4855,73
575,21	5181,36
575,41	5390,25
575,60	5611,43
575,80	5820,33
576,00	6113,19
576,19	6217,63
576,39	6234,02
576,59	6657,95
576,78	6756,25
576,98	6954,90
577,18	7174,03
577,37	7393,17
577,57	7530,38
577,77	7587,72
577,96	7853,96
578,16	8089,48
578,35	8374,14
578,55	8712,06
578,75	9011,06
578,94	9117,56
579,14	9838,44
579,34	9854,83
579,53	10243,94
579,73	10575,71
579,93	10631,01
580,12	11001,69
580,32	11138,90
580,51	11605,84
580,71	12083,02
580,91	12132,17
581,10	12519,23
581,30	12975,93
581,50	13471,54
581,69	13176,63
581,89	13797,17
582,08	14165,80
582,28	14260,01
582,48	14808,86
582,67	15107,87
582,87	15759,12
583,06	16039,69
583,26	16631,55
583,46	17045,24
583,65	17030,91
583,85	17721,07
584,04	18271,98
584,24	18687,71
584,44	18718,43
584,63	19599,06
584,83	20272,84
585,02	20846,27
585,22	21264,06
585,42	21642,93
585,61	21829,30
585,81	22619,81
586,00	23359,13
586,20	24077,97
586,39	24698,50
586,59	25063,04
586,79	26578,54
586,98	26820,20
587,18	27487,84
587,37	27985,49
587,57	28450,38
587,76	29531,71
587,96	30178,87
588,16	31129,12
588,35	31637,02
588,55	31704,60
588,74	33060,36
588,94	33277,44
589,13	34178,55
589,33	34725,36
589,52	35618,27
589,72	36459,99
589,92	37445,06
590,11	37998,01
590,31	38960,56
590,50	39812,51
590,70	40797,59
590,89	41547,14
591,09	42243,45
591,28	43257,20
591,48	44504,41
591,67	44326,24
591,87	45874,50
592,06	46288,19
592,26	47367,47
592,46	47949,09
592,65	48295,20
592,85	48782,62
593,04	50236,67
593,24	50570,49
593,43	50990,33
593,63	52542,69
593,82	53134,55
594,02	53599,44
594,21	54574,27
594,41	54160,58
594,60	53902,54
594,80	54385,86
594,99	54957,24
595,19	55278,77
595,38	56390,82
595,58	56878,24
595,77	56876,19
595,97	57199,77
596,16	56845,47
596,36	57115,80
596,55	57533,59
596,75	56992,92
596,94	56509,60
597,14	56392,87
597,33	57097,37
597,53	57097,37
597,72	56798,37
597,92	56444,07
598,11	55174,33
598,31	54916,28
598,50	54357,19
598,70	53538,00
598,89	53001,43
599,09	51295,47
599,28	50603,26
599,48	49593,61
599,67	48321,82
599,87	47609,13
600,06	46687,54
600,26	45382,99
600,45	44215,65
600,64	43394,41
600,84	41831,81
601,03	40916,37
601,23	39906,72
601,42	38849,97
601,62	37326,28
601,81	36394,45
602,01	35628,51
602,20	33932,79
602,40	32435,73
602,59	31084,07
602,78	29857,34
602,98	29167,17
603,17	27893,33
603,37	26998,37
603,56	25722,49
603,76	24669,83
603,95	23789,20
604,15	22896,29
604,34	22095,53
604,53	21214,91
604,73	20629,19
604,92	19574,49
605,12	19328,73
605,31	17954,54
605,51	17620,72
605,70	16768,77
605,89	16170,76
606,09	15472,40
606,28	15120,15
606,48	14262,05
606,67	13723,44
606,87	13371,19
607,06	12511,04
607,25	12357,44
607,45	12021,58
607,64	11394,90
607,84	10964,82
608,03	10590,05
608,22	10508,13
608,42	9946,98
608,61	9647,98
608,81	9357,17
609,00	9160,56
609,19	8925,05
609,39	8433,54
609,58	8142,72
609,78	8152,96
609,97	7423,89
610,16	7268,24
610,36	7018,39
610,55	6875,03
610,75	6631,32
610,94	6432,67
611,13	6170,53
611,33	5996,45
611,52	5844,90
611,71	5486,51
611,91	5404,59
612,10	5537,71
612,30	4972,47
612,49	4849,59
612,68	4657,08
612,88	4483,00
613,07	4413,37
613,26	4196,29
613,46	4046,79
613,65	3882,95
613,84	3866,56
614,04	3680,20
614,23	3356,62
614,43	3456,97
614,62	3231,69
614,81	3203,02
615,01	3008,47
615,20	2779,09
615,39	2754,52
615,59	2576,34
615,78	2445,27
615,97	2545,63
616,17	2398,17
616,36	2287,58
616,55	2365,40
616,75	2117,60
616,94	2123,74
617,13	1990,63
617,33	1941,47
617,52	1984,48
617,71	1880,04
617,91	1761,25
618,10	1884,13
618,29	1652,71
618,49	1652,71
618,68	1621,99
618,87	1499,11
619,07	1454,06
619,26	1392,62
619,45	1495,02
619,65	1421,29
619,84	1310,70
620,03	1327,08
620,22	1110,00
620,42	1185,77
620,61	1159,15
620,80	1105,90
621,00	1157,10
621,19	1130,48
621,38	1042,42
621,58	905,20
621,77	991,22
621,96	913,39
622,15	944,11
622,35	862,19
622,54	890,87
622,73	899,06
622,93	782,32
623,12	729,08
623,31	716,79
623,50	819,19
623,70	794,61
623,89	661,49
624,08	657,40
624,28	546,81
624,47	608,25
624,66	663,54
624,85	677,88
625,05	565,24
625,24	587,77
625,43	563,19
625,62	575,48
625,82	600,05
626,01	483,32
626,20	501,75
626,39	581,62
626,59	542,71
626,78	536,57
626,97	555,00
627,17	464,89
627,36	423,93
627,55	446,46
627,74	352,25
627,93	452,60
628,13	452,60
628,32	356,35
628,51	456,70
628,70	339,96
628,90	346,11
629,09	360,44
629,28	358,39
629,47	409,59
629,67	366,59
629,86	337,91
630,05	444,41
630,24	372,73
630,44	288,76
630,63	294,91
630,82	301,05
631,01	253,95
631,20	352,25
631,40	256,00
631,59	247,80
631,78	260,09
631,97	262,14
632,16	309,24
632,36	339,96
632,55	194,56
632,74	288,76
632,93	108,54
633,13	294,91
633,32	268,28
633,51	288,76
633,70	278,52
633,89	208,89
634,09	229,37
634,28	204,80
634,47	292,86
634,66	172,03
634,85	221,18
635,04	247,80
635,24	212,99
635,43	188,41
635,62	143,36
635,81	180,22
636,00	210,94
636,20	202,75
636,39	122,88
636,58	174,08
636,77	194,56
636,96	92,16
637,15	143,36
637,35	186,37
637,54	200,70
637,73	262,14
637,92	219,13
638,11	272,38
638,30	147,45
638,50	147,45
638,69	200,70
638,88	225,28
639,07	151,55
639,26	141,31
639,45	227,32
639,64	172,03
639,84	36,86
640,03	118,78
640,22	38,91
640,41	219,13
640,60	83,97
640,79	135,17
640,98	159,74
641,18	147,45
641,37	157,69
641,56	155,65
641,75	145,41
641,94	143,36
642,13	172,03
642,32	81,92
642,52	135,17
642,71	106,49
642,90	165,89
643,09	38,91
643,28	67,58
643,47	55,30
643,66	88,06
643,85	53,25
644,04	149,50
644,24	102,40
644,43	108,54
644,62	-18,43
644,81	98,30
645,00	139,26
645,19	135,17
645,38	71,68
645,57	129,02
645,76	-6,14
645,96	137,21
646,15	81,92
646,34	83,97
646,53	106,49
646,72	122,88
646,91	126,97
647,10	106,49
647,29	163,84
647,48	51,20
647,67	172,03
647,86	200,70
648,05	51,20
648,25	104,45
648,44	88,06
648,63	225,28
648,82	192,51
649,01	98,30
649,20	131,07
649,39	143,36
649,58	65,54
649,77	63,49
649,96	137,21
650,15	157,69
650,34	59,39
650,53	194,56
650,72	186,37
650,91	104,45
651,11	167,93
651,30	196,61
651,49	-43,01
651,68	83,97
651,87	63,49
652,06	141,31
652,25	124,93
652,44	94,21
652,63	-24,58
652,82	98,30
653,01	145,41
653,20	112,64
653,39	147,45
653,58	51,20
653,77	112,64
653,96	24,58
654,15	169,98
654,34	124,93
654,53	65,54
654,72	133,12
654,91	77,82
655,10	135,17
655,29	14,34
655,48	212,99
655,67	69,63
655,86	77,82
656,05	86,01
656,24	94,21
656,43	75,77
656,62	77,82
656,81	96,25
657,00	139,26
657,19	169,98
657,38	51,20
657,57	79,87
657,76	88,06
657,95	57,34
658,14	57,34
658,33	12,29
658,52	30,72
658,71	131,07
658,90	83,97
659,09	77,82
659,28	34,82
659,47	38,91
659,66	-6,14
659,85	118,78
660,04	57,34
660,23	131,07
660,42	55,30
660,61	77,82
660,80	141,31
660,99	61,44
661,18	176,13
661,37	40,96
661,56	98,30
661,75	124,93
661,94	124,93
662,13	75,77
662,32	-14,34
662,51	126,97
662,70	176,13
662,89	-26,62
663,08	149,50
663,27	122,88
663,46	65,53
663,65	161,79
663,83	108,54
664,02	137,21
664,21	-2,05
664,40	102,40
664,59	83,97
664,78	63,49
664,97	163,84
665,16	61,44
665,35	129,02
665,54	77,82
665,73	90,11
665,92	141,31
666,11	6,14
666,30	69,63
666,49	88,06
666,67	110,59
666,86	71,68
667,05	81,92
667,24	90,11
667,43	12,29
667,62	114,69
667,81	38,91
668,00	135,17
668,19	20,48
668,38	106,49
668,57	106,49
668,76	157,69
668,94	69,63
669,13	137,21
669,32	106,49
669,51	55,30
669,70	124,93
669,89	30,72
670,08	102,40
670,27	20,48
670,46	110,59
670,64	4,10
670,83	104,45
671,02	61,44
671,21	77,82
671,40	30,72
671,59	102,40
671,78	45,06
671,97	73,73
672,16	38,91
672,34	94,21
672,53	149,50
672,72	45,06
672,91	147,45
673,10	110,59
673,29	75,77
673,48	22,53
673,66	28,67
673,85	40,96
674,04	126,97
674,23	106,49
674,42	83,97
674,61	92,16
674,80	94,21
674,98	59,39
675,17	45,06
675,36	12,29
675,55	157,69
675,74	40,96
675,93	63,49
676,12	94,21
676,30	106,49
676,49	-38,91
676,68	65,54
676,87	88,06
677,06	104,45
677,25	137,21
677,43	106,49
677,62	118,78
677,81	96,25
678,00	98,30
678,19	53,25
678,37	184,32
678,56	90,11
678,75	-16,38
678,94	38,91
679,13	137,21
679,32	100,35
679,50	40,96
679,69	159,74
679,88	67,58
680,07	131,07
680,26	108,54
680,44	155,65
680,63	53,25
680,82	-51,20
681,01	4,10
681,20	126,97
681,38	59,39
681,57	63,49
681,76	131,07
681,95	79,87
682,14	26,62
682,32	79,87
682,51	26,62
682,70	32,77
682,89	122,88
683,07	2,05
683,26	61,44
683,45	53,25
683,64	106,49
683,83	120,83
684,01	67,58
684,20	-16,38
684,39	67,58
684,58	-22,53
684,76	96,25
684,95	8,19
685,14	16,38
685,33	86,01
685,52	81,92
685,70	38,91
685,89	-49,15
686,08	147,45
686,27	-61,44
686,45	94,21
686,64	43,01
686,83	38,91
687,02	43,01
687,20	96,25
687,39	36,86
687,58	79,87
687,76	0,00
687,95	120,83
688,14	106,49
688,33	169,98
688,51	126,97
688,70	30,72
688,89	36,86
689,08	36,86
689,26	108,54
689,45	147,45
689,64	77,82
689,83	73,73
690,01	18,43
690,20	196,61
690,39	129,02
690,57	114,69
690,76	88,06
690,95	96,25
691,14	100,35
691,32	98,30
691,51	126,97
691,70	167,93
691,88	126,97
692,07	90,11
692,26	38,91
692,44	143,36
692,63	94,21
692,82	106,49
693,01	65,53
693,19	-47,10
693,38	65,54
693,57	79,87
693,75	32,77
693,94	98,30
694,13	-73,73
694,31	110,59
694,50	83,97
694,69	96,25
694,87	51,20
695,06	88,06
695,25	-16,38
695,43	88,06
695,62	63,49
695,81	75,77
695,99	135,17
696,18	67,58
696,37	55,30
696,55	126,97
696,74	143,36
696,93	194,56
697,11	69,63
697,30	24,58
697,49	30,72
697,67	116,73
697,86	88,06
698,05	124,93
698,23	-26,62
698,42	184,32
698,61	79,87
698,79	20,48
698,98	77,82
699,17	126,97
699,35	122,88
699,54	92,16
699,72	86,01
699,91	106,49
700,10	69,63
700,28	73,73
700,47	43,01
700,66	-24,58
700,84	90,11
701,03	16,38
701,21	98,30
701,40	92,16
701,59	32,77
701,77	110,59
701,96	143,36
702,15	63,49
702,33	77,82
702,52	79,87
702,70	129,02
702,89	161,79
703,08	47,10
703,26	71,68
703,45	40,96
703,63	264,19
703,82	43,01
704,01	147,45
704,19	131,07
704,38	28,67
704,56	137,21
704,75	98,30
704,94	59,39
705,12	145,41
705,31	135,17
705,49	112,64
705,68	28,67
705,86	145,41
706,05	98,30
706,24	124,93
706,42	137,21
706,61	18,43
706,79	81,92
706,98	55,30
707,17	120,83
707,35	145,41
707,54	-26,62
707,72	63,49
707,91	61,44
708,09	104,45
708,28	151,55
708,46	-49,15
708,65	221,18
708,84	141,31
709,02	102,40
709,21	122,88
709,39	75,77
709,58	106,49
709,76	14,34
709,95	145,41
710,13	20,48
710,32	155,65
710,50	53,25
710,69	137,21
710,88	79,87
711,06	18,43
711,25	22,53
711,43	90,11
711,62	126,97
711,80	143,36
711,99	-83,97
712,17	71,68
712,36	208,89
712,54	16,38
712,73	28,67
712,91	194,56
713,10	231,42
713,28	73,73
713,47	90,11
713,65	141,31
713,84	143,36
714,02	163,84
714,21	79,87
714,39	100,35
714,58	79,87
714,76	83,97
714,95	129,02
715,13	75,77
715,32	57,34
715,50	-26,62
715,69	194,56
715,87	83,97
716,06	147,45
716,24	86,01
716,43	94,21
716,61	90,11
716,80	67,58
716,98	-71,68
717,17	192,51
717,35	190,46
717,54	77,82
717,72	16,38
717,91	81,92
718,09	14,34
718,28	96,25
718,46	96,25
718,65	26,62
718,83	59,39
719,01	32,77
719,20	47,10
719,38	38,91
719,57	98,30
719,75	63,49
719,94	69,63
720,12	118,78
720,31	92,16
720,49	112,64
720,68	43,01
720,86	77,82
721,04	159,74
721,23	32,77
721,41	47,10
721,60	137,21
721,78	131,07
721,97	139,26
722,15	118,78
722,34	157,69
722,52	188,41
722,70	63,49
722,89	108,54
723,07	86,01
723,26	81,92
723,44	77,82
723,63	43,01
723,81	30,72
723,99	112,64
724,18	43,01
724,36	73,73
724,55	145,41
724,73	69,63
724,91	90,11
725,10	112,64
725,28	4,10
725,47	174,08
725,65	55,30
725,83	110,59
726,02	75,77
726,20	159,74
726,39	90,11
726,57	102,40
726,75	79,87
726,94	98,30
727,12	184,32
727,31	114,69
727,49	104,45
727,67	153,60
727,86	77,82
728,04	8,19
728,23	149,50
728,41	126,97
728,59	81,92
728,78	149,50
728,96	67,58
729,14	106,49
729,33	-36,86
729,51	124,93
729,69	65,53
729,88	36,86
730,06	174,08
730,25	126,97
730,43	229,37
730,61	149,50
730,80	133,12
730,98	102,40
731,16	104,45
731,35	24,58
731,53	149,50
731,71	57,34
731,90	133,12
732,08	61,44
732,26	-10,24
732,45	-6,14
732,63	88,06
732,81	98,30
733,00	110,59
733,18	167,93
733,36	143,36
733,55	141,31
733,73	165,89
733,91	69,63
734,10	67,58
734,28	45,06
734,46	16,38
734,65	131,07
734,83	129,02
735,01	83,97
735,20	157,69
735,38	8,19
735,56	73,73
735,75	104,45
735,93	18,43
736,11	180,22
736,30	71,68
736,48	-16,38
736,66	94,21
736,84	157,69
737,03	77,82
737,21	36,86
737,39	-22,53
737,58	155,65
737,76	20,48
737,94	51,20
738,12	122,88
738,31	104,45
738,49	81,92
738,67	4,10
738,86	86,01
739,04	108,54
739,22	59,39
739,40	143,36
739,59	12,29
739,77	69,63
739,95	126,97
740,14	40,96
740,32	34,82
740,50	108,54
740,68	176,13
740,87	102,40
741,05	188,41
741,23	73,73
741,41	18,43
741,60	126,97
741,78	139,26
741,96	120,83
742,14	61,44
742,33	73,73
742,51	47,10
742,69	96,25
742,87	94,21
743,06	28,67
743,24	47,10
743,42	182,27
743,60	71,68
743,79	94,21
743,97	67,58
744,15	106,49
744,33	40,96
744,52	-47,10
744,70	112,64
744,88	174,08
745,06	79,87
745,24	79,87
745,43	86,01
745,61	53,25
745,79	86,01
745,97	182,27
746,16	116,73
746,34	190,46
746,52	118,78
746,70	81,92
746,88	155,65
747,07	79,87
747,25	83,97
747,43	83,97
747,61	124,93
747,79	100,35
747,98	98,30
748,16	176,13
748,34	34,82
748,52	18,43
748,70	-38,91
748,89	100,35
749,07	102,40
749,25	120,83
749,43	47,10
749,61	106,49
749,79	235,52
749,98	116,73
750,16	38,91
750,34	75,77
750,52	139,26
750,70	124,93
750,88	100,35
751,07	198,65
751,25	71,68
751,43	32,77
751,61	-55,30
751,79	40,96
751,97	182,27
752,16	38,91
752,34	153,60
752,52	63,49
752,70	155,65
752,88	55,30
753,06	186,37
753,25	55,30
753,43	135,17
753,61	94,21
753,79	-55,30
753,97	151,55
754,15	108,54
754,33	102,40
754,52	208,89
754,70	47,10
754,88	57,34
755,06	131,07
755,24	159,74
755,42	45,06
755,60	129,02
755,78	94,21
755,97	102,40
756,15	65,53
756,33	20,48
756,51	112,64
756,69	126,97
756,87	45,06
757,05	32,77
757,23	77,82
757,41	100,35
757,60	-2,05
757,78	53,25
757,96	86,01
758,14	61,44
758,32	-22,53
758,50	167,93
758,68	114,69
758,86	122,88
759,04	129,02
759,22	116,73
759,41	30,72
759,59	155,65
759,77	212,99
759,95	6,14
760,13	67,58
760,31	122,88
760,49	118,78
760,67	-2,05
760,85	-22,53
761,03	129,02
761,21	57,34
761,39	49,15
761,57	151,55
761,76	143,36
761,94	163,84
762,12	116,73
762,30	90,11
762,48	69,63
762,66	45,06
762,84	53,25
763,02	108,54
763,20	112,64
763,38	126,97
763,56	90,11
763,74	122,88
763,92	-6,14
764,10	215,04
764,28	75,77
764,46	32,77
764,64	151,55
764,82	122,88
765,00	65,53
765,19	53,25
765,37	88,06
765,55	65,53
765,73	81,92
765,91	69,63
766,09	83,97
766,27	143,36
766,45	26,62
766,63	57,34
766,81	67,58
766,99	122,88
767,17	30,72
767,35	57,34
767,53	110,59
767,71	159,74
767,89	120,83
768,07	122,88
768,25	59,39
768,43	32,77
768,61	34,82
768,79	81,92
768,97	139,26
769,15	61,44
769,33	110,59
769,51	102,40
769,69	53,25
769,87	63,49
770,05	88,06
770,23	100,35
770,41	145,41
770,59	55,30
770,77	20,48
770,95	112,64
771,13	104,45
771,31	10,24
771,49	-14,34
771,67	71,68
771,85	217,08
772,03	114,69
772,21	45,06
772,38	71,68
772,56	83,97
772,74	86,01
772,92	-24,58
773,10	147,45
773,28	155,65
773,46	49,15
773,64	159,74
773,82	86,01
774,00	88,06
774,18	124,93
774,36	120,83
774,54	69,63
774,72	75,77
774,90	-14,34
775,08	114,69
775,26	206,84
775,44	116,73
775,62	116,73
775,80	51,20
775,97	83,97
776,15	118,78
776,33	178,17
776,51	90,11
776,69	143,36
776,87	106,49
777,05	151,55
777,23	116,73
777,41	32,77
777,59	-4,10
777,77	14,34
777,95	104,45
778,13	57,34
778,30	143,36
778,48	163,84
778,66	157,69
778,84	69,63
779,02	126,97
779,20	65,54
779,38	192,51
779,56	126,97
779,74	34,82
779,92	-20,48
780,09	110,59
780,27	141,31
780,45	-34,82
780,63	90,11
780,81	139,26
780,99	159,74
781,17	106,49
781,35	129,02
781,52	153,60
781,70	145,41
781,88	186,37
782,06	192,51
782,24	96,25
782,42	139,26
782,60	141,31
782,78	22,53
782,95	188,41
783,13	92,16
783,31	83,97
783,49	81,92
783,67	65,54
783,85	169,98
784,03	98,30
784,20	30,72
784,38	122,88
784,56	116,73
784,74	124,93
784,92	69,63
785,10	116,73
785,28	83,97
785,45	225,28
785,63	182,27
785,81	73,73
785,99	114,69
786,17	192,51
786,35	88,06
786,52	92,16
786,70	55,30
786,88	51,20
787,06	100,35
787,24	167,93
787,41	137,21
787,59	118,78
787,77	59,39
787,95	26,62
788,13	145,41
788,31	77,82
788,48	143,36
788,66	18,43
788,84	22,53
789,02	174,08
789,20	67,58
789,37	96,25
789,55	190,46
789,73	122,88
789,91	145,41
790,09	51,20
790,26	69,63
790,44	61,44
790,62	47,10
790,80	190,46
790,98	153,60
791,15	192,51
791,33	40,96
791,51	90,11
791,69	51,20
791,86	151,55
792,04	110,59
792,22	135,17
792,40	75,77
792,58	40,96
792,75	139,26
792,93	159,74
793,11	28,67
793,29	47,10
793,46	129,02
793,64	137,21
793,82	83,97
794,00	188,41
794,17	165,89
794,35	47,10
794,53	131,07
794,71	43,01
794,88	55,30
795,06	-28,67
795,24	143,36
795,42	116,73
795,59	6,14
795,77	153,60
795,95	40,96
796,13	143,36
796,30	47,10
796,48	96,25
796,66	161,79
796,83	122,88
797,01	65,54
797,19	57,34
797,37	124,93
797,54	81,92
797,72	32,77
797,90	196,61
798,08	-32,77
798,25	24,58
798,43	143,36
798,61	40,96
798,78	155,65
798,96	108,54
799,14	51,20
799,31	143,36
799,49	126,97
799,67	69,63
799,85	139,26
800,02	96,25
800,20	2,05
800,38	28,67
800,55	57,34
800,73	75,77
800,91	90,11
801,08	83,97
801,26	69,63
801,44	81,92
801,61	106,49
801,79	65,54
801,97	147,45
802,15	69,63
802,32	63,49
802,50	73,73
802,68	32,77
802,85	116,73
803,03	120,83
803,21	86,01
803,38	116,73
803,56	38,91
803,74	12,29
803,91	106,49
804,09	55,30
804,26	141,31
804,44	133,12
804,62	161,79
804,79	45,06
804,97	149,50
805,15	49,15
805,32	92,16
805,50	126,97
805,68	73,73
805,85	106,49
806,03	104,45
806,21	110,59
806,38	34,82
806,56	55,30
806,73	106,49
806,91	151,55
807,09	77,82
807,26	98,30
807,44	59,39
807,62	100,35
807,79	147,45
807,97	59,39
808,14	90,11
808,32	178,17
808,50	135,17
808,67	131,07
808,85	88,06
809,02	174,08
809,20	116,73
809,38	155,65
809,55	14,34
809,73	96,25
809,90	110,59
810,08	145,41
810,26	79,87
810,43	92,16
810,61	145,41
810,78	69,63
810,96	69,63
811,14	75,77
811,31	22,53
811,49	51,20
811,66	86,01
811,84	-2,05
812,02	118,78
812,19	118,78
812,37	122,88
812,54	122,88
812,72	131,07
812,89	75,77
813,07	116,73
813,25	184,32
813,42	163,84
813,60	208,89
813,77	198,65
813,95	155,65
814,12	-16,38
814,30	102,40
814,47	57,34
814,65	116,73
814,83	176,13
815,00	100,35
815,18	172,03
815,35	32,77
815,53	176,13
815,70	34,82
815,88	112,64
816,05	100,35
816,23	43,01
816,40	155,65
816,58	145,41
816,75	65,54
816,93	133,12
817,10	210,94
817,28	88,06
817,46	24,58
817,63	141,31
817,81	-4,10
817,98	28,67
818,16	67,58
818,33	112,64
818,51	57,34
818,68	108,54
818,86	276,48
819,03	161,79
819,21	149,50
819,38	88,06
819,56	53,25
819,73	104,45
819,91	96,25
820,08	77,82
820,26	90,11
820,43	202,75
820,61	53,25
820,78	59,39
820,96	30,72
821,13	88,06
821,31	174,08
821,48	49,15
821,66	75,77
821,83	108,54
822,00	8,19
822,18	61,44
822,35	145,41
822,53	114,69
822,70	28,67
822,88	182,27
823,05	77,82
823,23	92,16
823,40	18,43
823,58	92,16
823,75	69,63
823,93	81,92
824,10	0,00
824,28	98,30
824,45	110,59
824,62	112,64
824,80	57,34
824,97	165,89
825,15	75,77
825,32	112,64
825,50	49,15
825,67	110,59
825,85	186,37
826,02	4,10
826,19	143,36
826,37	135,17
826,54	69,63
826,72	75,77
826,89	12,29
827,07	59,39
827,24	88,06
827,41	67,58
827,59	137,21
827,76	2,05
827,94	116,73
828,11	223,23
828,28	172,03
828,46	122,88
828,63	83,97
828,81	43,01
828,98	55,30
829,15	141,31
829,33	10,24
829,50	36,86
829,68	92,16
829,85	88,06
830,02	116,73
830,20	92,16
830,37	43,01
830,55	116,73
830,72	124,93
830,89	145,41
831,07	34,82
831,24	139,26
831,42	88,06
831,59	75,77
831,76	112,64
831,94	40,96
832,11	169,98
832,28	129,02
832,46	77,82
832,63	108,54
832,81	63,49
832,98	94,21
833,15	57,34
833,33	94,21
833,50	69,63
833,67	71,68
833,85	157,69
834,02	163,84
834,19	30,72
834,37	135,17
834,54	159,74
834,71	81,92
834,89	92,16
835,06	36,86
835,23	53,25
835,41	100,35
835,58	161,79
835,75	96,25
835,93	86,01
836,10	114,69
836,27	172,03
836,45	153,60
836,62	172,03
836,79	217,08
836,97	83,97
837,14	118,78
837,31	100,35
837,49	122,88
837,66	65,54
837,83	126,97
838,01	118,78
838,18	137,21
838,35	34,82
838,53	106,49
838,70	49,15
838,87	114,69
839,04	32,77
839,22	241,66
839,39	149,50
839,56	106,49
839,74	106,49
839,91	88,06
840,08	165,89
840,26	133,12
840,43	69,63
840,60	153,60
840,77	129,02
840,95	202,75
841,12	163,84
841,29	129,02
841,46	165,89
841,64	124,93
841,81	161,79
841,98	34,82
842,16	106,49
842,33	116,73
842,50	94,21
842,67	18,43
842,85	143,36
843,02	147,45
843,19	69,63
843,36	120,83
843,54	120,83
843,71	92,16
843,88	133,12
844,05	38,91
844,23	49,15
844,40	120,83
844,57	-12,29
844,74	112,64
844,92	159,74
845,09	53,25
845,26	90,11
845,43	40,96
845,61	49,15
845,78	151,55
845,95	149,50
846,12	188,41
846,29	165,89
846,47	147,45
846,64	49,15
846,81	-32,77
846,98	-90,11
847,16	53,25
847,33	110,59
847,50	120,83
847,67	30,72
847,84	131,07
848,02	131,07
848,19	-32,77
848,36	120,83
848,53	92,16
848,70	108,54
848,88	118,78
849,05	180,22
849,22	40,96
849,39	65,53
849,56	43,01
849,74	104,45
849,91	147,45
850,08	147,45
850,25	75,77
850,42	204,80
850,60	163,84
850,77	98,30
850,94	100,35
851,11	167,93
851,28	129,02
851,45	83,97
851,63	106,49
851,80	145,41
851,97	57,34
852,14	126,97
852,31	86,01
852,48	36,86
852,66	69,63
852,83	100,35
853,00	106,49
853,17	45,06
853,34	120,83
853,51	67,58
853,68	149,50
853,86	77,82
854,03	86,01
854,20	57,34
854,37	77,82
854,54	118,78
854,71	143,36
854,88	96,25
855,06	118,78
855,23	143,36
855,40	65,53
855,57	28,67
855,74	215,04
855,91	81,92
856,08	116,73
856,25	190,46
856,43	43,01
856,60	18,43
856,77	77,82
856,94	47,10
857,11	14,34
857,28	81,92
857,45	159,74
857,62	94,21
857,79	96,25
857,97	151,55
858,14	59,39
858,31	131,07
858,48	92,16
858,65	75,77
858,82	18,43
858,99	104,45
859,16	59,39
859,33	-16,38
859,50	43,01
859,67	77,82
859,85	69,63
860,02	24,58
860,19	163,84
860,36	94,21
860,53	151,55
860,70	169,98
860,87	59,39
861,04	215,04
861,21	176,13
861,38	219,13
861,55	120,83
861,72	83,97
861,89	32,77
862,06	77,82
862,23	122,88
862,41	75,77
862,58	110,59
862,75	133,12
862,92	178,17
863,09	32,77
863,26	43,01
863,43	94,21
863,60	104,45
863,77	141,31
863,94	4,10
864,11	110,59
864,28	81,92
864,45	32,77
864,62	161,79
864,79	178,17
864,96	86,01
865,13	147,45
865,30	178,17
865,47	180,22
865,64	-73,73
865,81	102,40
865,98	247,80
866,15	47,10
866,32	212,99
866,49	122,88
866,66	157,69
866,83	16,38
867,00	34,82
867,17	94,21
867,34	-24,58
867,51	198,65
867,68	-53,25
867,85	141,31
868,02	137,21
868,19	71,68
868,36	129,02
868,53	155,65
868,70	65,54
868,87	104,45
869,04	200,70
869,21	147,45
869,38	65,53
869,55	67,58
869,72	157,69
869,89	49,15
870,06	133,12
870,23	92,16
870,40	135,17
870,57	98,30
870,74	36,86
870,91	163,84
871,08	-22,53
871,25	94,21
871,42	137,21
871,59	194,56
871,76	67,58
871,93	-16,38
872,10	28,67
872,27	276,48
872,44	90,11
872,60	57,34
872,77	135,17
872,94	114,69
873,11	137,21
873,28	157,69
873,45	100,35
873,62	174,08
873,79	57,34
873,96	-10,24
874,13	102,40
874,30	-47,10
874,47	198,65
874,64	118,78
874,81	55,30
874,97	100,35
875,14	86,01
875,31	88,06
875,48	126,97
875,65	139,26
875,82	98,30
875,99	112,64
876,16	212,99
876,33	145,41
876,50	135,17
876,67	114,69
876,83	40,96
877,00	73,73
877,17	180,22
877,34	75,77
877,51	100,35
877,68	67,58
877,85	32,77
878,02	59,39
878,19	167,93
878,35	88,06
878,52	155,65
878,69	108,54
878,86	43,01
879,03	110,59
879,20	155,65
879,37	65,53
879,54	65,53
879,70	161,79
879,87	51,20
880,04	129,02
880,21	69,63
880,38	147,45
880,55	131,07
880,72	67,58
880,89	94,21
881,05	124,93
881,22	96,25
881,39	53,25
881,56	147,45
881,73	47,10
881,90	77,82
882,06	51,20
882,23	36,86
882,40	59,39
882,57	45,06
882,74	165,89
882,91	112,64
883,07	73,73
883,24	106,49
883,41	73,73
883,58	106,49
883,75	126,97
883,92	36,86
884,08	94,21
884,25	135,17
884,42	81,92
884,59	141,31
884,76	159,74
884,92	14,34
885,09	34,82
885,26	124,93
885,43	110,59
885,60	116,73
885,76	149,50
885,93	18,43
886,10	106,49
886,27	77,82
886,44	108,54
886,60	124,93
886,77	75,77
886,94	57,34
887,11	63,49
887,28	49,15
887,44	149,50
887,61	108,54
887,78	47,10
887,95	81,92
888,12	149,50
888,28	108,54
888,45	57,34
888,62	51,20
888,79	67,58
888,95	-14,34
889,12	129,02
889,29	161,79
889,46	88,06
889,62	126,97
889,79	143,36
889,96	90,11
890,13	137,21
890,29	178,17
890,46	104,45
890,63	20,48
890,80	116,73
890,96	57,34
891,13	96,25
891,30	153,60
891,47	75,77
891,63	217,08
891,80	104,45
891,97	73,73
892,14	96,25
892,30	83,97
892,47	151,55
892,64	88,06
892,80	135,17
892,97	34,82
893,14	53,25
893,31	118,78
893,47	4,10
893,64	153,60
893,81	116,73
893,97	139,26
894,14	61,44
>>>>>End Processed Spectral Data<<<<<
