SpectraSuite Datei
++++++++++++++++++++++++++++++++++++
Datum: Mon Dec 11 15:51:51 CET 2017
Benutzer: Praktikum-Pc1
Dark-Spektrum vorhanden: Ja
Referenz-Spektrum vorhanden: Nein
Zahl der probierten Teilspektren: 1
Spektrometer: USB4H10187
Integrationszeit (usec): 5000 (USB4H10187)
Spektren Durchschnitt berechnet: 800 (USB4H10187)
Boxcar Glättung: 0 (USB4H10187)
Dunkelstromkorrektur: Nein (USB4H10187)
Puls/Lampe aktiviert: Nein (USB4H10187)
Correct for Detector Non-linearity: Nein (USB4H10187)
Streulichtkorrektur: Nein (USB4H10187)
Anzahl Pixel in verarbeitetem Spektrum: 3648
>>>>>Begin Processed Spectral Data<<<<<
176,80	7,23
177,02	7,23
177,24	7,23
177,46	7,67
177,68	0,82
177,91	7,74
178,13	-5,29
178,35	13,53
178,57	11,76
178,79	-1,23
179,02	-2,78
179,24	0,18
179,46	11,07
179,68	8,09
179,90	9,40
180,12	1,68
180,35	7,61
180,57	9,18
180,79	29,73
181,01	50,78
181,23	45,74
181,46	43,41
181,68	42,30
181,90	46,23
182,12	43,15
182,34	53,43
182,56	47,86
182,79	53,62
183,01	47,66
183,23	51,64
183,45	47,91
183,67	44,04
183,89	52,15
184,12	45,30
184,34	42,13
184,56	51,39
184,78	44,17
185,00	49,54
185,22	44,99
185,45	43,08
185,67	49,36
185,89	44,33
186,11	45,46
186,33	42,91
186,55	38,79
186,77	38,15
187,00	42,91
187,22	53,97
187,44	50,37
187,66	44,67
187,88	48,02
188,10	50,51
188,32	42,39
188,55	57,12
188,77	56,23
188,99	55,73
189,21	55,07
189,43	56,05
189,65	62,12
189,87	62,32
190,10	50,40
190,32	61,87
190,54	50,56
190,76	52,29
190,98	49,79
191,20	49,50
191,42	53,50
191,64	40,24
191,87	59,34
192,09	52,28
192,31	47,21
192,53	36,80
192,75	47,01
192,97	51,31
193,19	44,97
193,41	56,73
193,64	61,13
193,86	56,94
194,08	59,72
194,30	56,26
194,52	54,84
194,74	55,22
194,96	52,00
195,18	53,40
195,40	41,14
195,63	52,34
195,85	47,82
196,07	46,52
196,29	49,00
196,51	58,94
196,73	57,39
196,95	54,78
197,17	47,43
197,39	49,48
197,61	54,25
197,84	45,42
198,06	55,21
198,28	45,67
198,50	57,91
198,72	56,38
198,94	52,33
199,16	62,16
199,38	56,97
199,60	53,41
199,82	54,01
200,04	52,66
200,26	53,82
200,49	56,58
200,71	63,30
200,93	53,56
201,15	59,65
201,37	62,17
201,59	55,27
201,81	57,73
202,03	57,20
202,25	70,51
202,47	61,61
202,69	65,16
202,91	57,97
203,13	67,26
203,35	72,95
203,58	77,02
203,80	72,28
204,02	72,93
204,24	68,94
204,46	76,32
204,68	62,45
204,90	56,18
205,12	58,97
205,34	58,70
205,56	61,47
205,78	60,95
206,00	57,37
206,22	62,41
206,44	57,09
206,66	54,19
206,88	51,66
207,10	55,73
207,32	63,70
207,54	55,45
207,76	61,50
207,99	59,48
208,21	58,86
208,43	72,50
208,65	54,41
208,87	64,05
209,09	66,44
209,31	53,66
209,53	61,94
209,75	50,48
209,97	57,34
210,19	67,54
210,41	62,40
210,63	70,75
210,85	67,40
211,07	51,14
211,29	48,67
211,51	58,11
211,73	64,71
211,95	64,30
212,17	61,71
212,39	62,44
212,61	66,98
212,83	62,99
213,05	56,42
213,27	67,13
213,49	62,31
213,71	63,26
213,93	54,42
214,15	60,61
214,37	59,34
214,59	53,87
214,81	56,94
215,03	56,42
215,25	51,79
215,47	62,77
215,69	65,76
215,91	62,23
216,13	66,39
216,35	72,44
216,57	70,53
216,79	60,25
217,01	59,37
217,23	68,58
217,45	75,34
217,67	72,38
217,89	68,36
218,11	67,57
218,33	74,81
218,55	79,06
218,77	79,92
218,99	71,53
219,21	74,28
219,43	77,83
219,65	70,53
219,87	63,51
220,09	61,81
220,31	65,24
220,53	69,40
220,75	69,67
220,97	64,38
221,19	59,11
221,41	64,43
221,63	66,06
221,85	54,09
222,06	59,49
222,28	63,54
222,50	64,98
222,72	55,13
222,94	64,53
223,16	68,40
223,38	69,13
223,60	67,61
223,82	68,30
224,04	65,58
224,26	69,56
224,48	68,53
224,70	62,53
224,92	66,36
225,14	57,69
225,36	76,76
225,58	71,52
225,80	62,49
226,02	68,92
226,24	59,34
226,45	65,18
226,67	60,31
226,89	64,01
227,11	57,24
227,33	62,30
227,55	68,91
227,77	62,87
227,99	56,62
228,21	53,20
228,43	70,06
228,65	59,55
228,87	66,21
229,09	56,74
229,31	72,39
229,52	60,99
229,74	60,42
229,96	71,40
230,18	59,97
230,40	64,24
230,62	68,32
230,84	69,93
231,06	71,14
231,28	71,98
231,50	70,72
231,72	67,44
231,94	74,38
232,15	66,90
232,37	61,26
232,59	58,88
232,81	66,43
233,03	82,99
233,25	73,82
233,47	70,81
233,69	75,43
233,91	81,49
234,13	86,26
234,34	94,51
234,56	89,49
234,78	95,18
235,00	89,09
235,22	88,95
235,44	70,94
235,66	82,98
235,88	82,26
236,10	70,17
236,31	76,84
236,53	64,85
236,75	68,47
236,97	65,07
237,19	71,18
237,41	63,92
237,63	61,43
237,85	72,23
238,07	60,93
238,28	64,80
238,50	70,83
238,72	63,47
238,94	64,08
239,16	64,91
239,38	59,11
239,60	73,14
239,81	62,04
240,03	62,68
240,25	64,11
240,47	60,31
240,69	64,87
240,91	66,65
241,13	72,20
241,34	63,82
241,56	66,04
241,78	66,57
242,00	63,46
242,22	63,41
242,44	76,55
242,66	75,51
242,87	63,15
243,09	66,69
243,31	66,49
243,53	76,81
243,75	70,71
243,97	80,36
244,19	70,60
244,40	67,72
244,62	66,00
244,84	75,24
245,06	78,39
245,28	75,74
245,50	76,49
245,71	83,83
245,93	76,29
246,15	85,88
246,37	75,97
246,59	91,63
246,81	92,15
247,02	86,04
247,24	88,96
247,46	93,15
247,68	92,87
247,90	103,35
248,11	92,46
248,33	96,71
248,55	89,33
248,77	103,74
248,99	95,04
249,21	114,90
249,42	104,55
249,64	103,33
249,86	95,23
250,08	109,76
250,30	111,25
250,51	118,79
250,73	114,45
250,95	117,73
251,17	121,32
251,39	109,34
251,60	120,78
251,82	121,64
252,04	116,16
252,26	117,44
252,48	112,32
252,69	116,20
252,91	123,05
253,13	124,65
253,35	122,07
253,57	123,17
253,78	129,54
254,00	122,87
254,22	117,44
254,44	123,06
254,65	117,72
254,87	114,20
255,09	111,68
255,31	112,03
255,53	117,53
255,74	119,86
255,96	123,20
256,18	112,79
256,40	111,80
256,61	114,95
256,83	107,51
257,05	112,10
257,27	116,64
257,48	117,47
257,70	108,70
257,92	119,67
258,14	127,89
258,36	121,78
258,57	125,21
258,79	122,87
259,01	121,19
259,23	126,04
259,44	130,04
259,66	131,51
259,88	141,13
260,10	140,47
260,31	141,80
260,53	141,27
260,75	139,07
260,97	134,91
261,18	147,55
261,40	140,26
261,62	132,86
261,84	131,91
262,05	143,21
262,27	127,67
262,49	136,42
262,71	131,42
262,92	136,87
263,14	129,09
263,36	131,19
263,57	133,62
263,79	140,53
264,01	146,54
264,23	140,53
264,44	144,65
264,66	147,23
264,88	153,00
265,10	143,80
265,31	141,24
265,53	150,23
265,75	140,85
265,96	146,77
266,18	143,89
266,40	145,63
266,62	134,15
266,83	136,28
267,05	141,12
267,27	145,55
267,48	158,13
267,70	150,43
267,92	141,76
268,14	149,60
268,35	146,69
268,57	149,93
268,79	153,30
269,00	149,51
269,22	143,97
269,44	151,41
269,65	151,12
269,87	160,20
270,09	159,90
270,31	154,54
270,52	153,07
270,74	156,72
270,96	143,73
271,17	153,68
271,39	157,27
271,61	162,44
271,82	162,19
272,04	157,07
272,26	166,87
272,47	162,74
272,69	160,62
272,91	159,62
273,12	158,21
273,34	140,74
273,56	138,54
273,77	142,47
273,99	144,90
274,21	146,18
274,42	143,42
274,64	142,81
274,86	134,07
275,08	140,39
275,29	137,35
275,51	140,92
275,72	130,10
275,94	138,70
276,16	125,70
276,37	143,52
276,59	137,38
276,81	143,95
277,02	143,04
277,24	153,35
277,46	146,13
277,67	139,86
277,89	132,81
278,11	141,07
278,32	140,98
278,54	137,61
278,76	138,90
278,97	143,61
279,19	129,75
279,41	133,20
279,62	135,41
279,84	141,38
280,05	139,40
280,27	144,64
280,49	138,40
280,70	142,31
280,92	119,27
281,14	134,26
281,35	122,88
281,57	117,21
281,79	117,35
282,00	109,96
282,22	116,94
282,43	114,15
282,65	117,29
282,87	116,61
283,08	97,14
283,30	106,49
283,52	104,10
283,73	91,35
283,95	94,10
284,16	104,84
284,38	97,21
284,60	98,02
284,81	94,46
285,03	102,30
285,24	100,51
285,46	92,79
285,68	108,69
285,89	107,96
286,11	111,71
286,32	107,79
286,54	113,96
286,76	113,63
286,97	117,42
287,19	126,35
287,40	102,47
287,62	111,80
287,84	107,65
288,05	94,15
288,27	92,65
288,48	107,66
288,70	99,67
288,92	100,54
289,13	99,93
289,35	98,01
289,56	105,30
289,78	99,09
289,99	98,85
290,21	100,09
290,43	99,59
290,64	100,80
290,86	100,82
291,07	97,97
291,29	105,51
291,51	97,07
291,72	105,81
291,94	103,61
292,15	110,88
292,37	109,62
292,58	108,38
292,80	108,22
293,01	106,45
293,23	121,47
293,45	110,56
293,66	132,23
293,88	144,74
294,09	153,22
294,31	153,29
294,52	167,43
294,74	162,62
294,96	147,77
295,17	144,86
295,39	130,09
295,60	119,72
295,82	108,70
296,03	103,13
296,25	109,00
296,46	100,50
296,68	107,96
296,89	113,93
297,11	108,90
297,32	106,61
297,54	102,99
297,76	101,49
297,97	105,05
298,19	107,26
298,40	91,95
298,62	105,30
298,83	96,89
299,05	97,35
299,26	94,61
299,48	100,20
299,69	97,18
299,91	101,94
300,12	101,10
300,34	99,15
300,55	100,40
300,77	96,05
300,98	96,07
301,20	109,80
301,41	102,58
301,63	103,33
301,84	113,98
302,06	110,54
302,28	113,93
302,49	118,16
302,71	103,88
302,92	106,03
303,14	109,10
303,35	112,59
303,57	114,73
303,78	106,88
304,00	102,82
304,21	103,56
304,43	104,47
304,64	108,73
304,86	97,21
305,07	104,91
305,29	103,40
305,50	105,64
305,71	114,44
305,93	102,45
306,14	114,03
306,36	106,97
306,57	109,64
306,79	105,07
307,00	110,85
307,22	112,44
307,43	114,46
307,65	113,21
307,86	106,78
308,08	120,30
308,29	128,75
308,51	128,45
308,72	116,00
308,94	122,19
309,15	124,90
309,37	108,83
309,58	110,16
309,80	122,76
310,01	120,15
310,22	115,99
310,44	109,25
310,65	112,21
310,87	105,90
311,08	112,75
311,30	114,97
311,51	115,46
311,73	120,62
311,94	123,38
312,16	120,69
312,37	127,32
312,58	125,47
312,80	119,58
313,01	115,26
313,23	123,44
313,44	131,38
313,66	130,90
313,87	123,27
314,09	120,40
314,30	128,58
314,51	114,11
314,73	119,60
314,94	125,22
315,16	132,89
315,37	123,76
315,59	126,11
315,80	123,72
316,01	123,98
316,23	129,85
316,44	136,20
316,66	145,42
316,87	157,21
317,09	151,78
317,30	149,80
317,51	142,69
317,73	134,00
317,94	131,17
318,16	128,24
318,37	128,37
318,58	136,83
318,80	130,93
319,01	121,29
319,23	132,71
319,44	129,34
319,66	125,82
319,87	125,56
320,08	122,51
320,30	118,75
320,51	128,18
320,73	130,90
320,94	132,96
321,15	123,32
321,37	129,93
321,58	140,98
321,80	130,97
322,01	127,93
322,22	133,21
322,44	120,51
322,65	131,44
322,86	129,07
323,08	135,00
323,29	136,59
323,51	132,32
323,72	128,78
323,93	155,19
324,15	145,33
324,36	141,07
324,58	150,89
324,79	155,44
325,00	155,13
325,22	149,93
325,43	159,54
325,64	154,71
325,86	145,83
326,07	154,41
326,28	150,30
326,50	157,85
326,71	163,65
326,93	165,73
327,14	169,87
327,35	180,89
327,57	181,16
327,78	187,29
327,99	182,82
328,21	200,38
328,42	232,80
328,63	251,99
328,85	327,84
329,06	539,85
329,27	1173,60
329,49	2649,19
329,70	4783,13
329,91	7457,97
330,13	9947,27
330,34	11587,23
330,56	12029,80
330,77	10650,11
330,98	8595,81
331,20	5802,30
331,41	3584,16
331,62	1829,77
331,84	846,10
332,05	444,25
332,26	296,45
332,48	237,65
332,69	211,71
332,90	206,48
333,11	193,29
333,33	184,91
333,54	179,06
333,75	176,31
333,97	163,31
334,18	174,38
334,39	166,04
334,61	163,30
334,82	164,53
335,03	170,41
335,25	162,32
335,46	152,24
335,67	148,24
335,89	156,14
336,10	160,46
336,31	144,92
336,53	159,29
336,74	158,40
336,95	149,41
337,16	161,35
337,38	159,16
337,59	154,74
337,80	146,57
338,02	153,03
338,23	161,29
338,44	149,43
338,65	147,77
338,87	151,55
339,08	140,99
339,29	135,95
339,51	123,11
339,72	140,55
339,93	164,46
340,14	161,58
340,36	140,83
340,57	129,30
340,78	141,44
341,00	138,69
341,21	139,29
341,42	145,15
341,63	142,49
341,85	146,67
342,06	150,57
342,27	146,48
342,49	161,22
342,70	161,32
342,91	170,95
343,12	160,29
343,34	160,91
343,55	149,40
343,76	166,85
343,97	150,74
344,19	159,72
344,40	146,13
344,61	145,60
344,82	148,23
345,04	140,91
345,25	141,75
345,46	135,68
345,67	129,30
345,89	130,71
346,10	140,91
346,31	152,96
346,52	148,65
346,74	161,08
346,95	157,98
347,16	141,45
347,37	151,70
347,59	142,92
347,80	139,90
348,01	147,46
348,22	156,30
348,43	149,48
348,65	136,35
348,86	134,84
349,07	138,62
349,28	147,45
349,50	144,12
349,71	145,13
349,92	154,28
350,13	148,28
350,34	148,19
350,56	150,02
350,77	151,39
350,98	154,52
351,19	154,36
351,41	147,44
351,62	151,23
351,83	147,84
352,04	153,85
352,25	146,47
352,47	155,35
352,68	147,72
352,89	161,49
353,10	155,50
353,31	161,57
353,53	159,11
353,74	175,98
353,95	178,87
354,16	185,33
354,37	178,46
354,59	174,25
354,80	175,08
355,01	168,20
355,22	179,02
355,43	171,17
355,65	172,09
355,86	175,12
356,07	169,33
356,28	168,80
356,49	170,25
356,70	174,19
356,92	159,85
357,13	163,96
357,34	149,91
357,55	157,57
357,76	143,66
357,98	148,88
358,19	150,75
358,40	143,24
358,61	153,02
358,82	151,78
359,03	156,49
359,25	157,51
359,46	170,41
359,67	156,35
359,88	161,39
360,09	160,39
360,30	167,83
360,51	164,66
360,73	162,27
360,94	152,21
361,15	151,37
361,36	158,32
361,57	162,41
361,78	144,87
362,00	158,38
362,21	148,70
362,42	146,11
362,63	147,46
362,84	134,43
363,05	148,65
363,26	156,02
363,48	158,18
363,69	170,04
363,90	161,23
364,11	167,31
364,32	170,48
364,53	174,58
364,74	162,01
364,95	157,99
365,17	162,57
365,38	160,46
365,59	159,05
365,80	158,49
366,01	173,55
366,22	166,95
366,43	163,44
366,64	168,53
366,86	163,32
367,07	166,19
367,28	174,22
367,49	165,88
367,70	163,18
367,91	168,09
368,12	165,42
368,33	152,38
368,54	163,57
368,76	171,65
368,97	158,96
369,18	156,08
369,39	162,78
369,60	165,24
369,81	172,00
370,02	177,00
370,23	189,10
370,44	191,39
370,65	176,23
370,87	173,80
371,08	169,64
371,29	173,87
371,50	170,57
371,71	165,74
371,92	166,63
372,13	162,85
372,34	167,38
372,55	172,30
372,76	165,19
372,97	172,08
373,18	172,66
373,40	173,44
373,61	165,36
373,82	170,33
374,03	158,25
374,24	164,88
374,45	161,69
374,66	165,78
374,87	179,84
375,08	172,14
375,29	167,88
375,50	184,25
375,71	171,09
375,92	167,39
376,13	168,95
376,34	173,47
376,56	172,89
376,77	163,78
376,98	158,86
377,19	175,57
377,40	173,50
377,61	175,94
377,82	166,44
378,03	162,00
378,24	181,03
378,45	173,85
378,66	163,71
378,87	159,18
379,08	153,86
379,29	165,98
379,50	160,99
379,71	163,27
379,92	164,97
380,13	164,75
380,34	157,15
380,55	161,36
380,76	165,59
380,97	174,14
381,18	172,09
381,39	164,69
381,60	171,76
381,81	160,28
382,02	167,24
382,24	155,11
382,45	147,26
382,66	157,69
382,87	161,67
383,08	162,66
383,29	159,15
383,50	164,31
383,71	160,25
383,92	160,63
384,13	162,84
384,34	165,43
384,55	168,11
384,76	174,02
384,97	174,84
385,18	169,22
385,39	171,76
385,60	164,55
385,81	184,81
386,02	183,45
386,23	177,60
386,44	185,56
386,65	176,45
386,86	171,48
387,07	168,90
387,28	163,06
387,49	155,60
387,70	150,82
387,91	144,00
388,12	140,17
388,32	146,34
388,53	135,63
388,74	150,46
388,95	148,03
389,16	155,45
389,37	158,25
389,58	164,50
389,79	169,66
390,00	170,75
390,21	176,50
390,42	174,18
390,63	187,55
390,84	183,38
391,05	179,41
391,26	174,17
391,47	171,73
391,68	170,20
391,89	163,24
392,10	164,52
392,31	158,53
392,52	148,20
392,73	151,92
392,94	146,72
393,15	159,02
393,36	154,01
393,57	157,77
393,78	165,69
393,98	164,82
394,19	180,77
394,40	201,64
394,61	218,98
394,82	227,06
395,03	232,52
395,24	240,33
395,45	225,28
395,66	213,02
395,87	193,61
396,08	180,83
396,29	178,70
396,50	164,52
396,71	161,99
396,92	156,22
397,12	155,52
397,33	151,49
397,54	146,92
397,75	160,73
397,96	162,89
398,17	150,69
398,38	159,35
398,59	174,21
398,80	166,52
399,01	175,16
399,22	174,90
399,43	170,56
399,63	167,80
399,84	175,35
400,05	176,16
400,26	178,11
400,47	176,09
400,68	177,15
400,89	174,95
401,10	168,91
401,31	158,06
401,52	163,21
401,72	152,41
401,93	173,32
402,14	169,39
402,35	176,72
402,56	174,31
402,77	168,85
402,98	164,20
403,19	169,81
403,40	175,28
403,60	181,28
403,81	190,85
404,02	219,52
404,23	226,01
404,44	253,97
404,65	259,52
404,86	254,31
405,07	247,30
405,27	224,38
405,48	213,85
405,69	200,92
405,90	196,02
406,11	183,48
406,32	178,35
406,53	174,71
406,74	172,16
406,94	164,06
407,15	170,31
407,36	158,49
407,57	152,93
407,78	173,83
407,99	169,76
408,20	163,57
408,40	170,83
408,61	162,70
408,82	157,21
409,03	174,30
409,24	171,11
409,45	172,35
409,65	175,18
409,86	178,05
410,07	188,20
410,28	182,42
410,49	182,31
410,70	185,29
410,90	195,10
411,11	192,57
411,32	186,84
411,53	189,71
411,74	199,07
411,95	203,79
412,15	195,99
412,36	185,65
412,57	209,21
412,78	193,08
412,99	202,13
413,20	207,53
413,40	206,40
413,61	199,19
413,82	199,01
414,03	189,15
414,24	194,07
414,44	184,79
414,65	190,33
414,86	187,29
415,07	236,50
415,28	307,03
415,48	379,52
415,69	471,61
415,90	554,89
416,11	586,31
416,32	566,49
416,53	528,64
416,73	460,20
416,94	401,48
417,15	341,34
417,36	289,81
417,56	253,68
417,77	242,66
417,98	238,37
418,19	254,53
418,40	269,29
418,60	291,29
418,81	318,81
419,02	348,88
419,23	408,94
419,44	482,22
419,64	556,04
419,85	644,61
420,06	683,79
420,27	709,99
420,47	667,24
420,68	584,65
420,89	484,50
421,10	401,67
421,30	327,97
421,51	268,74
421,72	233,01
421,93	208,17
422,14	188,97
422,34	190,03
422,55	196,55
422,76	189,38
422,97	173,84
423,17	179,77
423,38	177,91
423,59	175,23
423,80	182,80
424,00	173,36
424,21	183,06
424,42	181,89
424,63	186,61
424,83	200,13
425,04	214,71
425,25	237,83
425,46	247,14
425,66	278,97
425,87	309,95
426,08	339,53
426,28	356,52
426,49	381,24
426,70	384,65
426,91	396,38
427,11	406,61
427,32	392,92
427,53	374,55
427,74	334,67
427,94	292,04
428,15	262,88
428,36	227,04
428,56	215,98
428,77	203,02
428,98	201,76
429,19	210,20
429,39	228,32
429,60	254,82
429,81	278,60
430,01	281,16
430,22	292,30
430,43	283,50
430,64	275,37
430,84	256,58
431,05	236,03
431,26	217,99
431,46	211,44
431,67	196,81
431,88	194,04
432,08	199,93
432,29	191,68
432,50	206,43
432,70	218,02
432,91	246,80
433,12	267,32
433,33	292,37
433,53	313,10
433,74	321,82
433,95	325,80
434,15	299,61
434,36	290,26
434,57	272,01
434,77	257,86
434,98	237,44
435,19	225,05
435,39	206,49
435,60	195,39
435,81	199,59
436,01	182,54
436,22	181,81
436,43	178,32
436,63	182,53
436,84	175,99
437,05	173,70
437,25	176,15
437,46	186,69
437,67	186,21
437,87	184,77
438,08	182,16
438,29	192,28
438,49	192,39
438,70	206,08
438,91	205,29
439,11	209,40
439,32	207,31
439,52	215,82
439,73	202,80
439,94	200,42
440,14	191,24
440,35	193,55
440,56	183,10
440,76	188,48
440,97	195,84
441,18	177,55
441,38	180,58
441,59	180,88
441,79	185,10
442,00	179,89
442,21	184,81
442,41	183,96
442,62	184,37
442,83	183,53
443,03	181,00
443,24	185,68
443,44	174,42
443,65	173,30
443,86	173,36
444,06	177,87
444,27	188,91
444,48	183,13
444,68	177,42
444,89	180,77
445,09	176,48
445,30	173,34
445,51	178,56
445,71	183,79
445,92	179,21
446,12	189,84
446,33	185,64
446,54	184,22
446,74	181,12
446,95	189,93
447,15	182,87
447,36	179,51
447,57	182,07
447,77	181,94
447,98	177,69
448,18	174,76
448,39	179,01
448,59	188,12
448,80	178,75
449,01	198,23
449,21	207,32
449,42	214,14
449,62	238,02
449,83	246,59
450,04	233,66
450,24	250,28
450,45	233,55
450,65	244,52
450,86	233,34
451,06	236,98
451,27	239,93
451,47	238,62
451,68	232,11
451,89	228,44
452,09	228,80
452,30	223,73
452,50	213,37
452,71	213,98
452,91	207,30
453,12	204,16
453,33	188,90
453,53	177,41
453,74	191,81
453,94	188,93
454,15	189,15
454,35	192,84
454,56	217,72
454,76	259,62
454,97	313,77
455,17	362,86
455,38	427,44
455,58	459,46
455,79	448,60
456,00	433,31
456,20	386,39
456,41	336,37
456,61	286,30
456,82	249,47
457,02	229,08
457,23	208,76
457,43	193,67
457,64	178,20
457,84	179,48
458,05	171,81
458,25	175,60
458,46	184,83
458,66	186,86
458,87	186,33
459,07	192,71
459,28	195,20
459,48	199,68
459,69	202,44
459,89	194,75
460,10	201,65
460,30	198,26
460,51	197,17
460,71	193,51
460,92	195,77
461,12	201,76
461,33	193,19
461,53	193,65
461,74	178,63
461,94	192,57
462,15	200,24
462,35	202,67
462,56	208,61
462,76	202,65
462,97	213,93
463,17	214,04
463,38	198,50
463,58	202,94
463,79	200,94
463,99	205,44
464,20	192,56
464,40	198,77
464,61	196,06
464,81	198,79
465,02	193,71
465,22	207,97
465,43	203,86
465,63	208,60
465,83	226,35
466,04	287,63
466,24	321,45
466,45	403,42
466,65	453,04
466,86	494,46
467,06	507,98
467,27	486,20
467,47	433,70
467,68	377,74
467,88	319,74
468,08	273,02
468,29	251,60
468,49	235,66
468,70	209,84
468,90	191,41
469,11	199,62
469,31	191,30
469,52	200,90
469,72	195,02
469,92	197,26
470,13	208,11
470,33	219,78
470,54	217,61
470,74	219,25
470,95	216,46
471,15	208,53
471,35	211,97
471,56	200,29
471,76	199,34
471,97	194,05
472,17	189,47
472,38	199,17
472,58	199,03
472,78	214,16
472,99	201,12
473,19	199,93
473,40	199,19
473,60	203,75
473,80	201,62
474,01	214,38
474,21	217,66
474,42	226,11
474,62	251,68
474,83	279,88
475,03	293,19
475,23	304,86
475,44	304,11
475,64	298,30
475,85	276,65
476,05	262,45
476,25	254,51
476,46	238,71
476,66	231,92
476,86	223,73
477,07	215,79
477,27	209,73
477,48	216,11
477,68	216,63
477,88	191,52
478,09	212,39
478,29	211,26
478,50	219,79
478,70	215,85
478,90	216,12
479,11	213,64
479,31	224,62
479,51	230,94
479,72	206,75
479,92	224,69
480,12	233,52
480,33	224,00
480,53	221,48
480,74	226,30
480,94	228,17
481,14	230,01
481,35	240,50
481,55	230,35
481,75	222,18
481,96	225,90
482,16	227,91
482,36	221,44
482,57	229,35
482,77	227,43
482,97	230,93
483,18	234,91
483,38	234,90
483,58	223,57
483,79	236,87
483,99	238,48
484,19	239,21
484,40	236,33
484,60	241,31
484,80	243,17
485,01	239,41
485,21	247,54
485,41	243,72
485,62	237,80
485,82	243,19
486,02	233,68
486,23	243,49
486,43	233,73
486,63	241,67
486,84	240,12
487,04	241,91
487,24	245,23
487,45	235,54
487,65	238,64
487,85	238,25
488,06	251,58
488,26	245,32
488,46	239,45
488,67	249,35
488,87	261,81
489,07	263,57
489,27	258,82
489,48	261,20
489,68	263,58
489,88	250,32
490,09	251,35
490,29	251,92
490,49	248,70
490,70	248,35
490,90	238,20
491,10	246,53
491,30	258,40
491,51	246,57
491,71	257,48
491,91	254,53
492,12	257,28
492,32	259,38
492,52	283,03
492,72	314,65
492,93	384,07
493,13	448,97
493,33	523,15
493,53	584,06
493,74	582,83
493,94	560,91
494,14	525,66
494,34	470,18
494,55	424,47
494,75	381,81
494,95	341,85
495,16	339,80
495,36	295,37
495,56	289,51
495,76	275,18
495,97	273,62
496,17	271,84
496,37	264,16
496,57	272,14
496,78	285,62
496,98	366,29
497,18	568,49
497,38	923,06
497,59	1518,86
497,79	2198,10
497,99	2930,45
498,19	3444,77
498,39	3743,38
498,60	3584,66
498,80	3183,63
499,00	2590,53
499,20	2027,17
499,41	1541,50
499,61	1165,41
499,81	915,03
500,01	712,69
500,22	559,18
500,42	438,91
500,62	367,16
500,82	321,74
501,02	315,09
501,23	293,39
501,43	307,19
501,63	299,40
501,83	294,08
502,03	278,45
502,24	279,80
502,44	268,43
502,64	274,20
502,84	282,76
503,05	285,75
503,25	284,73
503,45	278,14
503,65	284,16
503,85	271,70
504,06	279,64
504,26	286,70
504,46	292,95
504,66	292,11
504,86	296,51
505,06	287,68
505,27	304,20
505,47	288,69
505,67	304,29
505,87	294,50
506,07	299,97
506,28	301,81
506,48	290,12
506,68	301,26
506,88	295,36
507,08	305,88
507,28	293,48
507,49	294,11
507,69	295,37
507,89	288,50
508,09	299,29
508,29	308,50
508,49	306,20
508,70	306,00
508,90	301,31
509,10	309,33
509,30	303,34
509,50	299,74
509,70	308,76
509,91	308,43
510,11	310,40
510,31	309,08
510,51	314,73
510,71	301,99
510,91	312,75
511,11	304,50
511,32	310,17
511,52	310,81
511,72	310,51
511,92	307,38
512,12	305,18
512,32	307,24
512,52	311,63
512,73	305,08
512,93	308,10
513,13	309,16
513,33	317,94
513,53	319,87
513,73	316,29
513,93	322,43
514,13	373,31
514,34	439,40
514,54	579,67
514,74	745,53
514,94	949,20
515,14	1117,96
515,34	1216,98
515,54	1250,89
515,74	1188,23
515,94	1047,80
516,15	915,61
516,35	777,30
516,55	655,80
516,75	578,63
516,95	503,66
517,15	461,16
517,35	409,74
517,55	393,96
517,75	376,98
517,95	372,20
518,16	368,50
518,36	365,76
518,56	379,16
518,76	388,57
518,96	382,01
519,16	381,51
519,36	391,90
519,56	373,20
519,76	363,03
519,96	367,13
520,16	373,60
520,37	361,28
520,57	368,06
520,77	365,47
520,97	368,65
521,17	354,23
521,37	359,36
521,57	371,68
521,77	382,15
521,97	379,51
522,17	390,75
522,37	392,81
522,57	403,37
522,77	397,49
522,97	388,03
523,17	385,58
523,37	381,36
523,58	375,28
523,78	376,81
523,98	371,37
524,18	372,15
524,38	382,41
524,58	376,51
524,78	377,63
524,98	390,98
525,18	385,73
525,38	388,10
525,58	401,29
525,78	397,87
525,98	393,48
526,18	399,88
526,38	390,68
526,58	387,39
526,78	397,20
526,98	398,28
527,18	376,36
527,38	381,80
527,58	380,04
527,78	390,97
527,98	398,24
528,18	404,76
528,38	386,08
528,58	394,52
528,78	398,06
528,98	392,37
529,18	402,29
529,38	401,89
529,58	387,49
529,78	396,90
529,98	405,96
530,18	406,14
530,38	395,01
530,58	398,38
530,78	396,07
530,98	408,94
531,18	409,59
531,38	406,07
531,58	400,79
531,78	417,99
531,98	424,83
532,18	410,29
532,38	421,56
532,58	424,81
532,78	417,60
532,98	412,95
533,18	412,77
533,38	422,51
533,58	422,28
533,78	429,66
533,98	434,76
534,18	437,76
534,38	438,20
534,58	439,05
534,78	440,68
534,98	438,43
535,18	432,90
535,38	438,41
535,58	437,62
535,78	436,88
535,98	444,95
536,18	438,73
536,38	446,81
536,58	448,86
536,78	443,65
536,98	442,22
537,18	449,00
537,38	444,94
537,58	440,83
537,78	436,57
537,98	450,80
538,17	457,64
538,37	444,12
538,57	461,93
538,77	452,25
538,97	458,49
539,17	460,59
539,37	463,36
539,57	468,64
539,77	473,53
539,97	470,11
540,17	475,80
540,37	477,12
540,57	475,10
540,77	484,28
540,97	490,48
541,16	496,11
541,36	483,24
541,56	490,79
541,76	496,28
541,96	491,69
542,16	487,19
542,36	490,73
542,56	486,73
542,76	484,08
542,96	487,24
543,16	497,60
543,36	491,02
543,55	499,52
543,75	496,56
543,95	503,24
544,15	520,18
544,35	505,80
544,55	512,63
544,75	516,28
544,95	523,46
545,15	521,63
545,35	531,84
545,54	529,59
545,74	519,37
545,94	514,86
546,14	520,88
546,34	511,96
546,54	523,10
546,74	527,13
546,94	515,44
547,14	518,77
547,33	518,65
547,53	521,86
547,73	519,86
547,93	533,75
548,13	529,46
548,33	536,38
548,53	540,70
548,72	533,63
548,92	545,84
549,12	559,65
549,32	578,92
549,52	588,07
549,72	610,46
549,92	611,01
550,12	613,32
550,31	602,72
550,51	612,61
550,71	595,43
550,91	593,90
551,11	587,31
551,31	586,71
551,50	572,49
551,70	578,17
551,90	586,83
552,10	584,78
552,30	592,30
552,50	594,69
552,70	599,46
552,89	610,40
553,09	614,11
553,29	615,75
553,49	623,69
553,69	632,02
553,88	650,65
554,08	634,09
554,28	642,71
554,48	653,90
554,68	655,91
554,88	657,88
555,07	667,24
555,27	674,23
555,47	681,34
555,67	710,45
555,87	703,35
556,06	707,15
556,26	732,12
556,46	718,97
556,66	723,18
556,86	727,25
557,06	726,15
557,25	724,86
557,45	729,79
557,65	743,70
557,85	730,50
558,05	732,36
558,24	728,87
558,44	734,33
558,64	740,37
558,84	735,40
559,03	736,02
559,23	755,02
559,43	764,64
559,63	776,15
559,83	798,43
560,02	807,39
560,22	828,33
560,42	835,56
560,62	848,88
560,82	865,54
561,01	869,69
561,21	860,40
561,41	881,88
561,61	875,65
561,80	889,13
562,00	903,39
562,20	907,58
562,40	935,70
562,59	932,56
562,79	928,19
562,99	940,41
563,19	937,97
563,38	951,00
563,58	968,19
563,78	978,84
563,98	998,45
564,17	1003,63
564,37	1027,58
564,57	1050,39
564,77	1072,45
564,96	1076,94
565,16	1088,71
565,36	1105,77
565,56	1107,67
565,75	1118,18
565,95	1128,24
566,15	1145,23
566,35	1149,24
566,54	1170,23
566,74	1190,49
566,94	1244,41
567,14	1427,11
567,33	2189,64
567,53	3670,18
567,73	6145,84
567,92	10395,74
568,12	16234,85
568,32	22476,77
568,52	28390,01
568,71	33007,37
568,91	35178,34
569,11	33892,95
569,30	29884,16
569,50	25427,69
569,70	20103,95
569,90	15268,85
570,09	12068,31
570,29	9533,59
570,49	7615,16
570,68	5925,37
570,88	4588,77
571,08	3555,72
571,27	2813,41
571,47	2312,19
571,67	2036,03
571,87	1868,14
572,06	1779,45
572,26	1744,42
572,46	1734,26
572,65	1745,47
572,85	1775,01
573,05	1819,80
573,24	1843,60
573,44	1864,88
573,64	1923,48
573,83	1965,49
574,03	2010,64
574,23	2069,14
574,42	2099,72
574,62	2138,79
574,82	2178,00
575,01	2210,13
575,21	2252,04
575,41	2287,20
575,60	2302,61
575,80	2339,20
576,00	2367,07
576,19	2407,96
576,39	2440,80
576,59	2516,35
576,78	2547,75
576,98	2599,03
577,18	2645,59
577,37	2681,48
577,57	2719,20
577,77	2758,53
577,96	2785,27
578,16	2859,91
578,35	2906,80
578,55	2953,00
578,75	3033,17
578,94	3061,69
579,14	3152,48
579,34	3202,05
579,53	3253,84
579,73	3289,39
579,93	3341,21
580,12	3421,21
580,32	3472,99
580,51	3554,48
580,71	3657,94
580,91	3714,63
581,10	3838,08
581,30	3937,15
581,50	4040,80
581,69	4128,06
581,89	4258,68
582,08	4397,54
582,28	4516,28
582,48	4699,67
582,67	4847,97
582,87	5018,67
583,06	5203,60
583,26	5395,37
583,46	5609,76
583,65	5811,44
583,85	6155,95
584,04	6541,58
584,24	7032,19
584,44	7661,92
584,63	8455,27
584,83	9223,58
585,02	10031,33
585,22	10809,45
585,42	11583,71
585,61	12170,07
585,81	12748,46
586,00	13322,58
586,20	13955,30
586,39	14533,14
586,59	15445,04
586,79	16693,72
586,98	18117,66
587,18	20284,41
587,37	26727,71
587,57	64186,29
587,76	64176,71
587,96	64181,13
588,16	64172,65
588,35	64189,40
588,55	64196,24
588,74	64176,50
588,94	64175,68
589,13	64176,09
589,33	64179,78
589,52	64186,49
589,72	64180,64
589,92	64184,04
590,11	64177,32
590,31	64184,86
590,50	64179,29
590,70	64188,67
590,89	64181,13
591,09	64185,55
591,28	64182,19
591,48	64181,37
591,67	64179,00
591,87	64182,52
592,06	64184,98
592,26	64186,49
592,46	64174,94
592,65	64184,69
592,85	64181,95
593,04	64185,96
593,24	64182,23
593,43	64190,02
593,63	64180,72
593,82	64184,32
594,02	64183,34
594,21	64182,85
594,41	64180,88
594,60	64189,48
594,80	64178,51
594,99	64185,14
595,19	64173,06
595,38	64188,67
595,58	64177,48
595,77	64181,83
595,97	64187,40
596,16	64193,13
596,36	64174,45
596,55	64186,13
596,75	64183,79
596,94	64191,41
597,14	64184,28
597,33	64185,31
597,53	64184,20
597,72	64181,42
597,92	64176,25
598,11	64187,81
598,31	64175,93
598,50	64185,63
598,70	64175,27
598,89	64187,93
599,09	64176,66
599,28	64184,53
599,48	64180,56
599,67	64173,84
599,87	64173,10
600,06	64185,59
600,26	64182,44
600,45	64185,59
600,64	64178,26
600,84	64181,29
601,03	64177,32
601,23	64186,66
601,42	64181,25
601,62	64179,49
601,81	64178,43
602,01	64187,11
602,20	64186,45
602,40	64178,71
602,59	64183,34
602,78	64180,23
602,98	64164,34
603,17	64182,93
603,37	64193,79
603,56	64188,26
603,76	64178,63
603,95	64187,23
604,15	64176,17
604,34	64180,88
604,53	64181,13
604,73	64197,10
604,92	64185,22
605,12	64185,80
605,31	64172,65
605,51	64184,53
605,70	64177,28
605,89	64176,58
606,09	64174,25
606,28	64198,25
606,48	64174,41
606,67	64191,78
606,87	64186,86
607,06	64183,79
607,25	64175,07
607,45	64175,80
607,64	64184,12
607,84	64189,85
608,03	64171,99
608,22	64173,72
608,42	64179,53
608,61	64183,14
608,81	64176,46
609,00	64186,17
609,19	64175,89
609,39	64194,69
609,58	64183,96
609,78	64186,66
609,97	64180,39
610,16	64188,58
610,36	64177,20
610,55	64191,16
610,75	64183,59
610,94	64180,31
611,13	64174,82
611,33	64192,68
611,52	64176,46
611,71	64182,93
611,91	64168,55
612,10	64187,93
612,30	64178,18
612,49	64181,33
612,68	64177,20
612,88	64194,32
613,07	64174,53
613,26	64192,27
613,46	64177,11
613,65	64186,90
613,84	64176,95
614,04	64187,48
614,23	64172,69
614,43	64190,67
614,62	64180,88
614,81	64189,89
615,01	64182,93
615,20	64183,59
615,39	64176,83
615,59	64188,17
615,78	64190,22
615,97	64178,92
616,17	64182,48
616,36	64180,68
616,55	64172,69
616,75	64194,03
616,94	64183,87
617,13	64195,51
617,33	64179,86
617,52	64185,43
617,71	64180,43
617,91	64180,84
618,10	64183,91
618,29	64181,78
618,49	64175,23
618,68	64183,50
618,87	64181,25
619,07	64185,39
619,26	64177,48
619,45	64182,36
619,65	64177,24
619,84	64187,27
620,03	64179,74
620,22	64184,86
620,42	64178,96
620,61	61875,38
620,80	63908,89
621,00	47898,26
621,19	56635,28
621,38	27916,05
621,58	35303,47
621,77	24161,90
621,96	25155,12
622,15	22516,69
622,35	23100,53
622,54	20483,24
622,73	21145,04
622,93	17799,09
623,12	18657,27
623,31	14195,56
623,50	15116,21
623,70	11194,46
623,89	11497,28
624,08	4313,96
624,28	5130,72
624,47	1237,32
624,66	1433,17
624,85	1067,92
625,05	1055,85
625,24	1052,02
625,43	1036,88
625,62	1034,36
625,82	1017,19
626,01	1007,05
626,20	993,34
626,39	995,36
626,59	987,62
626,78	977,55
626,97	958,12
627,17	958,48
627,36	947,77
627,55	942,13
627,74	937,06
627,93	935,41
628,13	925,58
628,32	931,34
628,51	916,36
628,70	917,20
628,90	909,71
629,09	907,42
629,28	906,00
629,47	901,25
629,67	897,14
629,86	902,45
630,05	894,18
630,24	895,22
630,44	897,67
630,63	903,52
630,82	890,32
631,01	880,75
631,20	864,80
631,40	874,51
631,59	866,77
631,78	846,61
631,97	850,56
632,16	841,64
632,36	830,44
632,55	832,61
632,74	828,55
632,93	814,24
633,13	817,12
633,32	808,30
633,51	804,08
633,70	804,37
633,89	807,79
634,09	801,03
634,28	794,38
634,47	786,01
634,66	783,68
634,85	780,79
635,04	775,51
635,24	774,38
635,43	772,09
635,62	756,56
635,81	769,27
636,00	758,11
636,20	773,20
636,39	775,75
636,58	773,98
636,77	767,16
636,96	754,35
637,15	774,58
637,35	759,68
637,54	747,90
637,73	749,70
637,92	750,38
638,11	747,98
638,30	758,58
638,50	746,98
638,69	750,50
638,88	737,22
639,07	730,79
639,26	742,12
639,45	715,19
639,64	714,60
639,84	716,55
640,03	693,26
640,22	697,42
640,41	687,46
640,60	679,99
640,79	693,34
640,98	704,64
641,18	719,18
641,37	732,75
641,56	733,21
641,75	760,28
641,94	757,01
642,13	755,19
642,32	726,71
642,52	715,08
642,71	705,22
642,90	688,73
643,09	675,34
643,28	674,09
643,47	664,77
643,66	666,22
643,85	651,41
644,04	649,55
644,24	639,76
644,43	641,21
644,62	642,39
644,81	623,14
645,00	626,13
645,19	612,80
645,38	613,57
645,57	614,40
645,76	603,89
645,96	600,75
646,15	609,16
646,34	604,11
646,53	595,10
646,72	600,08
646,91	589,72
647,10	588,77
647,29	579,01
647,48	582,95
647,67	570,83
647,86	569,86
648,05	565,44
648,25	559,59
648,44	553,20
648,63	556,85
648,82	552,95
649,01	572,22
649,20	582,88
649,39	583,21
649,58	584,00
649,77	598,93
649,96	588,47
650,15	581,77
650,34	568,68
650,53	554,45
650,72	558,90
650,91	554,62
651,11	535,21
651,30	530,76
651,49	537,18
651,68	526,28
651,87	511,52
652,06	515,22
652,25	516,87
652,44	501,70
652,63	501,07
652,82	503,52
653,01	501,56
653,20	497,42
653,39	489,18
653,58	488,27
653,77	495,05
653,96	489,10
654,15	487,44
654,34	492,72
654,53	487,43
654,72	474,23
654,91	475,40
655,10	471,20
655,29	469,15
655,48	476,56
655,67	471,89
655,86	464,12
656,05	469,28
656,24	478,67
656,43	463,91
656,62	457,54
656,81	457,78
657,00	459,54
657,19	450,45
657,38	450,60
657,57	442,12
657,76	441,00
657,95	442,66
658,14	436,72
658,33	429,10
658,52	433,77
658,71	434,49
658,90	423,28
659,09	422,62
659,28	420,73
659,47	419,58
659,66	425,39
659,85	425,43
660,04	418,37
660,23	423,40
660,42	421,16
660,61	416,19
660,80	413,99
660,99	417,42
661,18	406,24
661,37	408,40
661,56	410,07
661,75	393,49
661,94	402,38
662,13	395,78
662,32	389,35
662,51	386,04
662,70	389,97
662,89	389,32
663,08	380,07
663,27	373,16
663,46	375,72
663,65	374,62
663,83	370,96
664,02	361,16
664,21	366,42
664,40	361,07
664,59	365,72
664,78	378,55
664,97	360,19
665,16	359,73
665,35	356,49
665,54	357,69
665,73	361,55
665,92	356,93
666,11	355,70
666,30	356,05
666,49	357,81
666,67	361,98
666,86	370,36
667,05	384,70
667,24	399,15
667,43	414,66
667,62	415,74
667,81	430,85
668,00	425,52
668,19	408,26
668,38	415,55
668,57	386,30
668,76	376,53
668,94	360,20
669,13	353,92
669,32	344,60
669,51	333,85
669,70	339,06
669,89	322,06
670,08	317,26
670,27	319,99
670,46	314,63
670,64	315,69
670,83	307,49
671,02	302,36
671,21	304,86
671,40	297,15
671,59	305,26
671,78	292,47
671,97	292,94
672,16	297,04
672,34	288,89
672,53	294,11
672,72	296,16
672,91	285,59
673,10	273,53
673,29	270,38
673,48	274,15
673,66	278,19
673,85	267,20
674,04	266,06
674,23	280,30
674,42	293,69
674,61	325,51
674,80	338,41
674,98	371,43
675,17	396,83
675,36	422,36
675,55	412,44
675,74	416,34
675,93	383,44
676,12	361,26
676,30	349,64
676,49	336,23
676,68	322,89
676,87	303,44
677,06	295,93
677,25	288,02
677,43	280,80
677,62	274,98
677,81	264,76
678,00	261,54
678,19	252,42
678,37	240,91
678,56	251,98
678,75	243,45
678,94	235,29
679,13	229,38
679,32	238,58
679,50	230,76
679,69	223,05
679,88	228,34
680,07	224,43
680,26	217,66
680,44	225,87
680,63	213,78
680,82	220,57
681,01	228,08
681,20	225,84
681,38	216,94
681,57	204,85
681,76	217,37
681,95	206,21
682,14	211,67
682,32	218,05
682,51	224,11
682,70	212,11
682,89	211,46
683,07	213,82
683,26	209,07
683,45	205,49
683,64	215,01
683,83	210,18
684,01	200,95
684,20	206,20
684,39	198,01
684,58	200,35
684,76	208,49
684,95	206,83
685,14	202,46
685,33	189,70
685,52	200,39
685,70	206,54
685,89	196,59
686,08	209,02
686,27	222,16
686,45	247,20
686,64	262,97
686,83	278,42
687,02	310,20
687,20	331,05
687,39	330,75
687,58	323,20
687,76	310,39
687,95	291,51
688,14	282,37
688,33	259,15
688,51	251,33
688,70	252,78
688,89	249,15
689,08	227,17
689,26	220,84
689,45	222,27
689,64	214,06
689,83	206,00
690,01	204,56
690,20	195,05
690,39	190,31
690,57	197,33
690,76	193,10
690,95	183,68
691,14	183,57
691,32	182,23
691,51	177,69
691,70	183,99
691,88	184,24
692,07	186,61
692,26	178,15
692,44	187,17
692,63	190,21
692,82	200,46
693,01	197,13
693,19	207,58
693,38	215,25
693,57	236,12
693,75	252,34
693,94	250,68
694,13	245,36
694,31	247,12
694,50	252,20
694,69	230,84
694,87	232,55
695,06	261,32
695,25	380,56
695,43	823,38
695,62	1686,94
695,81	2865,18
695,99	4452,00
696,18	6423,90
696,37	8411,66
696,55	9719,87
696,74	10062,24
696,93	9842,70
697,11	8992,84
697,30	7589,23
697,49	6174,55
697,67	4953,06
697,86	4126,46
698,05	3454,43
698,23	2906,13
698,42	2458,23
698,61	2099,87
698,79	1805,33
698,98	1551,66
699,17	1310,72
699,35	1077,32
699,54	850,08
699,72	658,09
699,91	517,70
700,10	398,28
700,28	317,15
700,47	274,34
700,66	237,58
700,84	218,46
701,03	200,27
701,21	197,10
701,40	189,39
701,59	193,68
701,77	183,22
701,96	189,30
702,15	190,57
702,33	217,11
702,52	230,30
702,70	260,31
702,89	283,81
703,08	297,24
703,26	300,26
703,45	297,49
703,63	281,34
703,82	266,57
704,01	245,74
704,19	228,40
704,38	228,01
704,56	215,75
704,75	197,65
704,94	206,93
705,12	209,81
705,31	236,81
705,49	376,53
705,68	744,29
705,86	1344,72
706,05	2144,79
706,24	3196,59
706,42	4391,73
706,61	5440,22
706,79	6029,28
706,98	6139,85
707,17	5885,92
707,35	5293,35
707,54	4435,12
707,72	3604,19
707,91	2946,16
708,09	2495,99
708,28	2098,98
708,46	1778,34
708,65	1523,49
708,84	1320,67
709,02	1152,85
709,21	1008,63
709,39	875,06
709,58	713,90
709,76	591,19
709,95	484,61
710,13	389,84
710,32	317,06
710,50	272,65
710,69	244,05
710,88	226,91
711,06	201,85
711,25	199,97
711,43	196,63
711,62	184,75
711,80	182,22
711,99	179,53
712,17	174,72
712,36	169,44
712,54	173,20
712,73	176,06
712,91	175,50
713,10	173,22
713,28	165,30
713,47	181,41
713,65	223,06
713,84	286,89
714,02	367,23
714,21	488,57
714,39	611,24
714,58	724,77
714,76	786,28
714,95	790,51
715,13	778,75
715,32	711,59
715,50	614,84
715,69	545,14
715,87	469,01
716,06	418,46
716,24	373,32
716,43	334,42
716,61	315,35
716,80	283,65
716,98	270,27
717,17	256,12
717,35	239,16
717,54	225,87
717,72	207,21
717,91	196,83
718,09	176,49
718,28	172,04
718,46	161,44
718,65	152,86
718,83	154,26
719,01	150,16
719,20	157,48
719,38	147,88
719,57	150,58
719,75	154,68
719,94	156,28
720,12	161,37
720,31	175,02
720,49	171,34
720,68	180,51
720,86	182,04
721,04	176,45
721,23	170,05
721,41	170,23
721,60	159,41
721,78	148,95
721,97	164,50
722,15	158,08
722,34	160,52
722,52	154,78
722,70	156,20
722,89	147,50
723,07	141,44
723,26	152,25
723,44	153,28
723,63	152,34
723,81	153,51
723,99	151,85
724,18	153,67
724,36	139,68
724,55	156,87
724,73	143,60
724,91	146,00
725,10	148,99
725,28	142,21
725,47	150,44
725,65	147,56
725,83	159,69
726,02	195,58
726,20	309,21
726,39	508,14
726,57	780,18
726,75	1113,13
726,94	1516,94
727,12	1886,11
727,31	2102,67
727,49	2201,71
727,67	2139,16
727,86	1952,53
728,04	1685,64
728,23	1414,13
728,41	1179,33
728,59	1012,59
728,78	862,35
728,96	736,80
729,14	640,24
729,33	570,23
729,51	509,97
729,69	457,29
729,88	414,65
730,06	390,37
730,25	346,75
730,43	306,17
730,61	262,12
730,80	250,10
730,98	220,04
731,16	212,34
731,35	202,60
731,53	196,35
731,71	183,12
731,90	180,84
732,08	180,01
732,26	168,29
732,45	168,11
732,63	153,95
732,81	153,22
733,00	156,41
733,18	151,40
733,36	151,27
733,55	142,61
733,73	150,43
733,91	158,44
734,10	156,00
734,28	156,52
734,46	162,67
734,65	172,98
734,83	174,85
735,01	194,99
735,20	200,14
735,38	197,90
735,56	208,41
735,75	210,79
735,93	198,14
736,11	208,74
736,30	211,75
736,48	220,61
736,66	245,76
736,84	295,03
737,03	399,80
737,21	712,22
737,39	1418,68
737,58	2377,67
737,76	3732,75
737,94	5337,63
738,12	7272,59
738,31	8709,45
738,49	9490,15
738,67	9610,59
738,86	9035,79
739,04	8060,44
739,22	6717,26
739,40	5406,20
739,59	4429,73
739,77	3632,69
739,95	3018,55
740,14	2533,83
740,32	2175,84
740,50	1896,81
740,68	1708,05
740,87	1528,49
741,05	1399,03
741,23	1237,38
741,41	1083,47
741,60	901,98
741,78	737,52
741,96	573,01
742,14	447,98
742,33	373,45
742,51	303,29
742,69	259,62
742,87	237,35
743,06	222,15
743,24	222,74
743,42	213,63
743,60	210,73
743,79	208,27
743,97	212,16
744,15	205,40
744,33	193,25
744,52	188,08
744,70	180,62
744,88	167,40
745,06	169,16
745,24	168,37
745,43	164,74
745,61	161,92
745,79	153,49
745,97	160,92
746,16	158,03
746,34	154,07
746,52	173,59
746,70	170,88
746,88	170,49
747,07	168,50
747,25	181,46
747,43	175,33
747,61	184,73
747,79	178,51
747,98	186,92
748,16	186,39
748,34	185,79
748,52	192,79
748,70	196,18
748,89	230,83
749,07	335,65
749,25	645,45
749,43	1238,92
749,61	2033,49
749,79	3169,06
749,98	4481,11
750,16	6014,52
750,34	7254,36
750,52	8378,37
750,70	9153,70
750,88	9869,45
751,07	10320,11
751,25	10725,71
751,43	10748,01
751,61	10494,37
751,79	9882,55
751,97	8935,54
752,16	7666,78
752,34	6358,05
752,52	5208,20
752,70	4416,85
752,88	3760,43
753,06	3281,57
753,25	2887,39
753,43	2559,85
753,61	2249,06
753,79	1991,95
753,97	1719,81
754,15	1517,65
754,33	1324,27
754,52	1153,74
754,70	976,92
754,88	789,06
755,06	624,33
755,24	510,18
755,42	399,63
755,60	343,74
755,78	284,03
755,97	245,73
756,15	215,57
756,33	203,44
756,51	189,05
756,69	192,74
756,87	188,73
757,05	183,98
757,23	171,81
757,41	170,57
757,60	172,30
757,78	176,74
757,96	176,51
758,14	170,74
758,32	176,84
758,50	168,83
758,68	178,16
758,86	172,30
759,04	169,64
759,22	177,23
759,41	178,41
759,59	177,33
759,77	178,39
759,95	183,11
760,13	189,52
760,31	190,67
760,49	198,97
760,67	213,70
760,85	207,97
761,03	219,80
761,21	223,05
761,39	237,22
761,57	245,50
761,76	261,77
761,94	317,23
762,12	618,78
762,30	1660,10
762,48	4135,98
762,66	8044,40
762,84	13371,37
763,02	20088,98
763,20	28020,89
763,38	33841,91
763,56	36457,14
763,74	36739,54
763,92	35263,16
764,10	31696,41
764,28	26425,21
764,46	20714,54
764,64	16653,99
764,82	13859,21
765,00	11965,94
765,19	10367,34
765,37	9412,82
765,55	8749,56
765,73	8467,79
765,91	8329,29
766,09	8530,93
766,27	8754,27
766,45	8738,11
766,63	8376,34
766,81	7637,65
766,99	6567,28
767,17	5342,04
767,35	4146,01
767,53	3212,40
767,71	2536,26
767,89	2057,90
768,07	1711,37
768,25	1461,91
768,43	1265,10
768,61	1170,98
768,79	1170,40
768,97	1288,35
769,15	1482,91
769,33	1801,26
769,51	2143,04
769,69	2507,84
769,87	2672,29
770,05	2665,19
770,23	2510,35
770,41	2243,26
770,59	1895,83
770,77	1546,05
770,95	1318,91
771,13	1376,89
771,31	1952,50
771,49	3140,64
771,67	4827,86
771,85	7114,24
772,03	9806,53
772,21	12388,31
772,38	13922,25
772,56	14253,23
772,74	13616,94
772,92	12218,00
773,10	10244,94
773,28	8181,91
773,46	6436,68
773,64	5404,72
773,82	4603,23
774,00	4047,25
774,18	3560,96
774,36	3187,14
774,54	2849,24
774,72	2585,81
774,90	2330,91
775,08	2139,60
775,26	1933,52
775,44	1792,89
775,62	1593,35
775,80	1388,35
775,97	1144,65
776,15	941,14
776,33	730,45
776,51	567,23
776,69	435,10
776,87	355,30
777,05	292,51
777,23	246,62
777,41	206,72
777,59	195,36
777,77	188,03
777,95	170,69
778,13	163,30
778,30	161,39
778,48	161,16
778,66	157,10
778,84	147,98
779,02	154,72
779,20	147,25
779,38	154,69
779,56	150,83
779,74	153,18
779,92	160,70
780,09	154,07
780,27	151,30
780,45	153,43
780,63	150,12
780,81	138,49
780,99	139,40
781,17	143,14
781,35	144,77
781,52	130,67
781,70	142,15
781,88	138,45
782,06	136,89
782,24	130,92
782,42	138,37
782,60	132,74
782,78	135,95
782,95	130,06
783,13	135,52
783,31	127,78
783,49	131,67
783,67	122,98
783,85	131,79
784,03	127,24
784,20	122,20
784,38	125,27
784,56	134,19
784,74	133,32
784,92	130,48
785,10	126,44
785,28	133,36
785,45	138,56
785,63	115,56
785,81	129,82
785,99	126,41
786,17	125,77
786,35	130,19
786,52	129,19
786,70	132,76
786,88	123,79
787,06	123,17
787,24	125,38
787,41	137,07
787,59	124,11
787,77	134,72
787,95	133,59
788,13	130,59
788,31	141,41
788,48	139,98
788,66	135,33
788,84	148,29
789,02	145,76
789,20	149,21
789,37	145,37
789,55	144,99
789,73	143,41
789,91	142,68
790,09	145,77
790,26	140,34
790,44	138,85
790,62	126,38
790,80	143,78
790,98	142,57
791,15	135,88
791,33	145,70
791,51	139,79
791,69	142,44
791,86	148,64
792,04	144,61
792,22	151,61
792,40	148,33
792,58	144,77
792,75	148,71
792,93	154,07
793,11	158,99
793,29	166,03
793,46	262,78
793,64	603,64
793,82	1232,56
794,00	2135,92
794,17	3279,13
794,35	4649,79
794,53	6015,36
794,71	7067,66
794,88	7376,03
795,06	7203,69
795,24	6624,17
795,42	5824,79
795,59	4785,91
795,77	3960,56
795,95	3386,90
796,13	2974,37
796,30	2644,12
796,48	2395,19
796,66	2143,77
796,83	1973,24
797,01	1775,25
797,19	1644,44
797,37	1502,25
797,54	1392,90
797,72	1288,45
797,90	1202,11
798,08	1106,97
798,25	1019,25
798,43	895,34
798,61	777,41
798,78	642,52
798,96	532,20
799,14	462,82
799,31	470,72
799,49	629,59
799,67	979,37
799,85	1462,59
800,02	2119,83
800,20	2962,58
800,38	4049,23
800,55	5103,19
800,73	6194,84
800,91	7225,19
801,08	8196,89
801,26	8891,52
801,44	9075,67
801,61	8749,71
801,79	8199,67
801,97	7354,54
802,15	6460,70
802,32	5418,17
802,50	4686,31
802,68	4096,77
802,85	3692,13
803,03	3311,98
803,21	3019,18
803,38	2737,26
803,56	2496,34
803,74	2292,88
803,91	2102,42
804,09	1939,62
804,26	1767,16
804,44	1604,31
804,62	1459,79
804,79	1304,46
804,97	1176,38
805,15	1013,61
805,32	879,73
805,50	727,64
805,68	591,37
805,85	482,35
806,03	397,89
806,21	322,30
806,38	285,56
806,56	259,00
806,73	236,18
806,91	227,25
807,09	215,27
807,26	215,47
807,44	215,48
807,62	214,33
807,79	217,28
807,97	221,85
808,14	224,63
808,32	242,32
808,50	237,45
808,67	258,13
808,85	299,38
809,02	447,56
809,20	870,72
809,38	1603,95
809,55	2602,54
809,73	3902,60
809,90	5374,85
810,08	7026,34
810,26	8782,11
810,43	10748,78
810,61	13270,44
810,78	16412,66
810,96	19706,64
811,14	23524,05
811,31	27097,89
811,49	28878,69
811,66	28709,75
811,84	27677,34
812,02	25498,16
812,19	22437,07
812,37	19283,20
812,54	16518,20
812,72	14659,41
812,89	13128,96
813,07	11869,98
813,25	10668,73
813,42	9703,09
813,60	8762,23
813,77	8050,79
813,95	7210,62
814,12	6682,67
814,30	5985,33
814,47	5399,76
814,65	4895,46
814,83	4472,71
815,00	4032,07
815,18	3593,47
815,35	3138,81
815,53	2647,54
815,70	2153,31
815,88	1716,87
816,05	1373,06
816,23	1102,53
816,40	902,03
816,58	794,63
816,75	796,87
816,93	1165,36
817,10	2275,02
817,28	4680,12
817,46	8304,53
817,63	13121,45
817,81	18719,54
817,98	24977,39
818,16	30609,68
818,33	36101,18
818,51	40962,40
818,68	46463,59
818,86	51047,55
819,03	54632,29
819,21	57125,75
819,38	59001,06
819,56	58977,76
819,73	58235,21
819,91	56344,02
820,08	53754,08
820,26	49877,21
820,43	46199,39
820,61	42122,63
820,78	38695,93
820,96	33377,67
821,13	29316,48
821,31	26053,03
821,48	23417,70
821,66	21307,98
821,83	19434,46
822,00	17576,93
822,18	15806,08
822,35	13964,31
822,53	12534,45
822,70	10982,87
822,88	9738,42
823,05	8688,32
823,23	7561,00
823,40	6402,57
823,58	5259,26
823,75	4141,46
823,93	3202,63
824,10	2424,09
824,28	1805,57
824,45	1344,26
824,62	1012,16
824,80	787,71
824,97	661,10
825,15	637,40
825,32	779,94
825,50	1089,03
825,67	1561,11
825,85	2128,72
826,02	2775,45
826,19	3389,37
826,37	3862,89
826,54	4065,20
826,72	4047,50
826,89	3852,20
827,07	3583,80
827,24	3193,30
827,41	2823,63
827,59	2521,76
827,76	2306,45
827,94	2086,65
828,11	1880,81
828,28	1730,91
828,46	1591,01
828,63	1458,91
828,81	1367,62
828,98	1263,17
829,15	1162,47
829,33	1071,13
829,50	1002,37
829,68	922,21
829,85	869,68
830,02	807,74
830,20	758,92
830,37	690,68
830,55	606,45
830,72	512,40
830,89	421,75
831,07	360,63
831,24	284,79
831,42	234,69
831,59	208,38
831,76	183,37
831,94	162,52
832,11	165,13
832,28	143,94
832,46	139,99
832,63	139,27
832,81	134,45
832,98	116,49
833,15	121,26
833,33	127,44
833,50	120,32
833,67	121,60
833,85	112,80
834,02	106,69
834,19	113,07
834,37	109,20
834,54	112,41
834,71	117,65
834,89	107,97
835,06	107,29
835,23	110,80
835,41	111,23
835,58	110,53
835,75	110,41
835,93	103,50
836,10	102,47
836,27	106,59
836,45	103,77
836,62	99,03
836,79	110,43
836,97	92,74
837,14	108,48
837,31	101,59
837,49	109,64
837,66	106,40
837,83	108,10
838,01	112,71
838,18	101,96
838,35	116,93
838,53	109,27
838,70	117,89
838,87	123,94
839,04	114,12
839,22	147,63
839,39	193,17
839,56	303,40
839,74	519,00
839,91	907,48
840,08	1413,34
840,26	2022,83
840,43	2714,64
840,60	3421,22
840,77	4002,01
840,95	4386,33
841,12	4597,35
841,29	4692,22
841,46	4790,45
841,64	5081,34
841,81	5355,54
841,98	5889,44
842,16	6517,45
842,33	7220,70
842,50	7581,33
842,67	7770,69
842,85	7533,38
843,02	7296,84
843,19	6800,19
843,36	6236,30
843,54	5628,71
843,71	5138,27
843,88	4735,18
844,05	4349,55
844,23	3990,68
844,40	3665,41
844,57	3358,48
844,74	3131,25
844,92	2827,67
845,09	2601,69
845,26	2346,43
845,43	2120,62
845,61	1911,16
845,78	1717,36
845,95	1558,59
846,12	1412,67
846,29	1297,45
846,47	1175,99
846,64	1052,19
846,81	900,29
846,98	758,54
847,16	604,70
847,33	482,40
847,50	367,63
847,67	289,40
847,84	228,85
848,02	198,95
848,19	162,03
848,36	139,74
848,53	115,58
848,70	111,69
848,88	104,54
849,05	95,98
849,22	99,90
849,39	91,86
849,56	106,97
849,74	88,97
849,91	96,90
850,08	92,72
850,25	93,55
850,42	83,59
850,60	106,95
850,77	111,58
850,94	129,45
851,11	197,91
851,28	297,74
851,45	451,23
851,63	635,37
851,80	865,87
851,97	1083,43
852,14	1272,04
852,31	1425,89
852,48	1503,52
852,66	1514,92
852,83	1461,46
853,00	1399,10
853,17	1287,15
853,34	1188,35
853,51	1097,58
853,68	1019,58
853,86	952,52
854,03	884,68
854,20	819,73
854,37	758,26
854,54	711,21
854,71	653,19
854,88	602,02
855,06	570,21
855,23	540,68
855,40	504,36
855,57	467,81
855,74	445,28
855,91	418,89
856,08	386,72
856,25	366,31
856,43	333,37
856,60	294,84
856,77	263,80
856,94	219,32
857,11	182,72
857,28	148,42
857,45	129,77
857,62	119,23
857,79	89,58
857,97	90,20
858,14	78,06
858,31	71,75
858,48	68,67
858,65	77,19
858,82	66,01
858,99	61,66
859,16	60,27
859,33	68,21
859,50	59,21
859,67	62,23
859,85	59,47
860,02	65,06
860,19	60,80
860,36	57,98
860,53	56,34
860,70	68,69
860,87	62,87
861,04	68,73
861,21	72,40
861,38	61,34
861,55	64,60
861,72	67,00
861,89	63,63
862,06	66,96
862,23	64,01
862,41	60,00
862,58	66,81
862,75	58,93
862,92	53,78
863,09	64,10
863,26	61,26
863,43	65,19
863,60	54,57
863,77	57,38
863,94	57,91
864,11	60,97
864,28	51,31
864,45	61,45
864,62	40,28
864,79	57,33
864,96	54,91
865,13	64,70
865,30	56,33
865,47	59,78
865,64	59,93
865,81	64,50
865,98	73,28
866,15	89,35
866,32	121,83
866,49	145,60
866,66	166,50
866,83	200,95
867,00	242,11
867,17	257,83
867,34	287,56
867,51	283,32
867,68	294,28
867,85	282,17
868,02	264,57
868,19	238,02
868,36	236,86
868,53	224,29
868,70	204,77
868,87	207,61
869,04	190,69
869,21	182,36
869,38	168,12
869,55	156,22
869,72	162,35
869,89	148,65
870,06	140,66
870,23	131,19
870,40	113,71
870,57	124,50
870,74	125,97
870,91	110,54
871,08	100,71
871,25	108,73
871,42	100,77
871,59	91,18
871,76	84,04
871,93	75,22
872,10	71,94
872,27	53,01
872,44	57,62
872,60	53,08
872,77	54,78
872,94	54,27
873,11	60,99
873,28	54,96
873,45	48,36
873,62	55,22
873,79	51,34
873,96	47,71
874,13	47,86
874,30	52,15
874,47	41,30
874,64	50,45
874,81	47,64
874,97	47,16
875,14	45,91
875,31	58,62
875,48	49,47
875,65	50,50
875,82	47,80
875,99	50,56
876,16	42,88
876,33	46,92
876,50	49,64
876,67	52,34
876,83	41,26
877,00	44,73
877,17	55,64
877,34	48,44
877,51	54,21
877,68	45,85
877,85	50,99
878,02	36,99
878,19	47,99
878,35	50,03
878,52	57,57
878,69	46,43
878,86	39,88
879,03	53,99
879,20	43,50
879,37	49,85
879,54	37,69
879,70	46,91
879,87	43,18
880,04	39,26
880,21	41,44
880,38	40,53
880,55	48,51
880,72	43,71
880,89	45,04
881,05	41,45
881,22	49,11
881,39	41,70
881,56	39,66
881,73	42,62
881,90	51,79
882,06	34,89
882,23	46,22
882,40	48,18
882,57	49,51
882,74	44,97
882,91	47,04
883,07	31,03
883,24	45,35
883,41	48,38
883,58	39,74
883,75	41,38
883,92	47,00
884,08	38,02
884,25	57,70
884,42	39,36
884,59	46,83
884,76	45,63
884,92	37,18
885,09	34,21
885,26	41,78
885,43	49,82
885,60	35,81
885,76	42,65
885,93	39,31
886,10	42,78
886,27	53,81
886,44	45,72
886,60	44,98
886,77	38,01
886,94	46,19
887,11	38,09
887,28	41,78
887,44	45,12
887,61	47,83
887,78	36,73
887,95	42,41
888,12	39,77
888,28	39,12
888,45	41,04
888,62	39,39
888,79	36,62
888,95	42,38
889,12	34,23
889,29	37,16
889,46	45,17
889,62	46,63
889,79	45,39
889,96	35,69
890,13	38,89
890,29	35,20
890,46	44,71
890,63	40,61
890,80	40,91
890,96	39,67
891,13	50,68
891,30	41,40
891,47	43,21
891,63	30,87
891,80	45,72
891,97	36,48
892,14	34,02
892,30	48,63
892,47	39,18
892,64	52,59
892,80	30,20
892,97	45,59
893,14	37,16
893,31	44,00
893,47	43,02
893,64	43,64
893,81	47,51
893,97	37,67
894,14	42,92
>>>>>End Processed Spectral Data<<<<<
