SpectraSuite Datei
++++++++++++++++++++++++++++++++++++
Datum: Mon Dec 11 16:01:29 CET 2017
Benutzer: Praktikum-Pc1
Dark-Spektrum vorhanden: Ja
Referenz-Spektrum vorhanden: Nein
Zahl der probierten Teilspektren: 1
Spektrometer: USB4H10187
Integrationszeit (usec): 5000 (USB4H10187)
Spektren Durchschnitt berechnet: 800 (USB4H10187)
Boxcar Glättung: 0 (USB4H10187)
Dunkelstromkorrektur: Nein (USB4H10187)
Puls/Lampe aktiviert: Nein (USB4H10187)
Correct for Detector Non-linearity: Nein (USB4H10187)
Streulichtkorrektur: Nein (USB4H10187)
Anzahl Pixel in verarbeitetem Spektrum: 3648
>>>>>Begin Processed Spectral Data<<<<<
176,80	14,91
177,02	14,91
177,24	14,91
177,46	15,42
177,68	8,75
177,91	16,51
178,13	1,91
178,35	21,82
178,57	20,86
178,79	6,07
179,02	5,68
179,24	7,51
179,46	17,17
179,68	15,28
179,90	14,91
180,12	8,88
180,35	16,34
180,57	17,41
180,79	10,01
181,01	18,19
181,23	14,68
181,46	11,86
181,68	10,25
181,90	11,43
182,12	12,85
182,34	20,66
182,56	16,00
182,79	20,32
183,01	13,97
183,23	17,93
183,45	17,73
183,67	12,26
183,89	18,22
184,12	14,49
184,34	9,27
184,56	20,55
184,78	8,02
185,00	14,15
185,22	13,74
185,45	6,59
185,67	17,99
185,89	13,26
186,11	13,49
186,33	9,36
186,55	5,48
186,77	7,01
187,00	11,50
187,22	20,69
187,44	17,09
187,66	6,09
187,88	12,98
188,10	14,49
188,32	8,36
188,55	20,63
188,77	15,75
188,99	15,71
189,21	14,67
189,43	14,33
189,65	17,71
189,87	20,18
190,10	8,28
190,32	20,00
190,54	8,65
190,76	9,70
190,98	10,82
191,20	15,53
191,42	17,68
191,64	13,58
191,87	25,20
192,09	18,82
192,31	13,21
192,53	7,27
192,75	12,77
192,97	17,14
193,19	9,75
193,41	19,58
193,64	19,75
193,86	17,13
194,08	16,37
194,30	14,96
194,52	10,62
194,74	15,19
194,96	11,01
195,18	15,01
195,40	2,29
195,63	12,81
195,85	12,05
196,07	8,52
196,29	12,26
196,51	19,55
196,73	16,58
196,95	13,22
197,17	7,25
197,39	11,51
197,61	13,76
197,84	6,29
198,06	15,39
198,28	5,83
198,50	19,46
198,72	17,07
198,94	11,51
199,16	22,35
199,38	18,25
199,60	12,53
199,82	14,31
200,04	11,89
200,26	13,23
200,49	14,14
200,71	23,34
200,93	10,64
201,15	15,42
201,37	17,16
201,59	10,25
201,81	12,91
202,03	9,58
202,25	22,85
202,47	10,81
202,69	11,11
202,91	4,95
203,13	14,38
203,35	18,02
203,58	20,86
203,80	16,72
204,02	17,26
204,24	11,58
204,46	25,76
204,68	14,64
204,90	9,64
205,12	13,37
205,34	16,92
205,56	18,73
205,78	18,71
206,00	14,56
206,22	16,32
206,44	16,24
206,66	13,56
206,88	7,36
207,10	11,94
207,32	16,07
207,54	11,68
207,76	13,94
207,99	11,23
208,21	9,84
208,43	20,70
208,65	7,66
208,87	18,33
209,09	19,80
209,31	11,35
209,53	16,92
209,75	7,31
209,97	11,84
210,19	23,94
210,41	16,34
210,63	23,43
210,85	17,55
211,07	1,81
211,29	2,13
211,51	10,80
211,73	14,67
211,95	13,51
212,17	11,00
212,39	13,23
212,61	17,56
212,83	15,34
213,05	4,30
213,27	16,85
213,49	10,73
213,71	12,41
213,93	5,46
214,15	14,69
214,37	11,12
214,59	8,96
214,81	13,69
215,03	12,29
215,25	7,97
215,47	15,79
215,69	17,64
215,91	16,30
216,13	17,22
216,35	20,57
216,57	20,27
216,79	8,65
217,01	5,65
217,23	15,82
217,45	24,44
217,67	16,77
217,89	13,89
218,11	8,13
218,33	15,04
218,55	12,95
218,77	20,04
218,99	7,82
219,21	13,10
219,43	21,30
219,65	15,64
219,87	10,12
220,09	8,00
220,31	15,22
220,53	20,06
220,75	18,10
220,97	12,89
221,19	10,83
221,41	17,31
221,63	18,01
221,85	5,62
222,06	8,04
222,28	16,24
222,50	16,86
222,72	3,58
222,94	13,83
223,16	13,95
223,38	15,92
223,60	17,21
223,82	13,29
224,04	10,41
224,26	15,21
224,48	13,03
224,70	6,47
224,92	12,93
225,14	6,02
225,36	22,96
225,58	21,44
225,80	10,47
226,02	19,03
226,24	8,85
226,45	15,51
226,67	14,94
226,89	17,30
227,11	10,40
227,33	12,90
227,55	19,33
227,77	14,34
227,99	5,74
228,21	0,89
228,43	18,49
228,65	10,83
228,87	13,00
229,09	7,80
229,31	18,11
229,52	12,03
229,74	7,62
229,96	20,55
230,18	10,50
230,40	10,48
230,62	17,10
230,84	16,00
231,06	13,90
231,28	17,41
231,50	14,53
231,72	12,43
231,94	16,75
232,15	8,53
232,37	11,19
232,59	2,63
232,81	10,24
233,03	28,43
233,25	18,22
233,47	10,60
233,69	14,86
233,91	18,08
234,13	18,34
234,34	20,67
234,56	11,68
234,78	16,34
235,00	12,71
235,22	15,66
235,44	2,05
235,66	15,80
235,88	22,37
236,10	10,43
236,31	15,49
236,53	10,38
236,75	15,70
236,97	11,77
237,19	17,37
237,41	13,81
237,63	7,34
237,85	20,43
238,07	7,30
238,28	10,37
238,50	16,22
238,72	11,96
238,94	11,62
239,16	11,81
239,38	1,39
239,60	18,23
239,81	6,81
240,03	7,42
240,25	11,62
240,47	9,37
240,69	11,75
240,91	12,33
241,13	17,47
241,34	11,64
241,56	16,10
241,78	11,91
242,00	11,03
242,22	10,06
242,44	23,22
242,66	20,49
242,87	7,26
243,09	13,76
243,31	13,97
243,53	20,44
243,75	15,10
243,97	23,17
244,19	11,51
244,40	8,03
244,62	8,62
244,84	12,56
245,06	16,75
245,28	13,37
245,50	14,98
245,71	19,40
245,93	11,25
246,15	21,33
246,37	9,86
246,59	20,64
246,81	18,47
247,02	11,58
247,24	14,33
247,46	18,62
247,68	18,01
247,90	23,41
248,11	15,85
248,33	20,29
248,55	7,63
248,77	20,40
248,99	6,68
249,21	27,21
249,42	13,01
249,64	7,25
249,86	0,01
250,08	10,77
250,30	9,90
250,51	17,85
250,73	11,80
250,95	11,83
251,17	14,89
251,39	7,88
251,60	19,33
251,82	22,62
252,04	16,22
252,26	18,32
252,48	11,58
252,69	15,86
252,91	16,54
253,13	17,22
253,35	14,29
253,57	15,30
253,78	21,31
254,00	16,86
254,22	15,66
254,44	16,11
254,65	14,29
254,87	12,05
255,09	10,39
255,31	10,05
255,53	15,88
255,74	19,10
255,96	20,89
256,18	10,34
256,40	13,14
256,61	16,96
256,83	13,69
257,05	12,57
257,27	9,63
257,48	16,91
257,70	3,84
257,92	12,24
258,14	21,86
258,36	11,99
258,57	19,48
258,79	16,72
259,01	14,00
259,23	15,26
259,44	15,45
259,66	15,21
259,88	19,36
260,10	14,26
260,31	17,64
260,53	14,12
260,75	13,71
260,97	13,21
261,18	22,87
261,40	18,00
261,62	10,64
261,84	9,99
262,05	23,65
262,27	13,64
262,49	17,20
262,71	14,96
262,92	19,64
263,14	11,70
263,36	9,97
263,57	8,84
263,79	12,92
264,01	18,03
264,23	7,94
264,44	7,18
264,66	6,46
264,88	19,83
265,10	13,94
265,31	8,92
265,53	17,71
265,75	10,21
265,96	13,84
266,18	14,33
266,40	15,00
266,62	2,34
266,83	6,93
267,05	8,36
267,27	7,10
267,48	17,89
267,70	12,09
267,92	6,79
268,14	13,53
268,35	13,51
268,57	19,65
268,79	21,40
269,00	19,72
269,22	7,07
269,44	10,98
269,65	8,43
269,87	16,47
270,09	18,05
270,31	16,26
270,52	17,06
270,74	22,32
270,96	5,39
271,17	15,25
271,39	17,22
271,61	12,26
271,82	12,04
272,04	5,91
272,26	18,43
272,47	15,82
272,69	21,53
272,91	21,36
273,12	23,63
273,34	7,07
273,56	6,26
273,77	11,59
273,99	13,38
274,21	15,75
274,42	15,57
274,64	14,52
274,86	10,65
275,08	13,92
275,29	9,77
275,51	16,68
275,72	6,52
275,94	9,69
276,16	-0,34
276,37	17,45
276,59	6,53
276,81	14,14
277,02	10,03
277,24	20,12
277,46	14,71
277,67	19,76
277,89	6,46
278,11	19,48
278,32	18,70
278,54	13,36
278,76	20,18
278,97	24,99
279,19	10,83
279,41	11,14
279,62	12,18
279,84	18,86
280,05	14,46
280,27	18,28
280,49	16,42
280,70	25,81
280,92	6,20
281,14	22,95
281,35	13,32
281,57	9,78
281,79	13,50
282,00	8,71
282,22	17,76
282,43	13,74
282,65	20,64
282,87	21,36
283,08	6,03
283,30	17,37
283,52	16,34
283,73	7,31
283,95	11,54
284,16	20,36
284,38	12,85
284,60	18,27
284,81	13,30
285,03	14,00
285,24	14,53
285,46	5,55
285,68	19,22
285,89	17,85
286,11	17,15
286,32	13,16
286,54	13,20
286,76	13,96
286,97	17,43
287,19	23,53
287,40	2,27
287,62	17,23
287,84	15,32
288,05	5,82
288,27	8,58
288,48	21,69
288,70	16,10
288,92	14,90
289,13	13,75
289,35	11,70
289,56	19,74
289,78	12,83
289,99	14,88
290,21	14,38
290,43	16,56
290,64	15,00
290,86	17,93
291,07	8,67
291,29	19,00
291,51	8,17
291,72	16,45
291,94	13,42
292,15	24,78
292,37	16,48
292,58	13,04
292,80	13,83
293,01	10,04
293,23	20,10
293,45	6,13
293,66	19,53
293,88	20,86
294,09	16,42
294,31	12,33
294,52	17,47
294,74	12,35
294,96	5,45
295,17	11,79
295,39	11,83
295,60	10,44
295,82	7,98
296,03	9,50
296,25	15,84
296,46	12,35
296,68	15,42
296,89	19,57
297,11	15,72
297,32	12,80
297,54	12,55
297,76	12,32
297,97	17,70
298,19	21,92
298,40	6,65
298,62	21,87
298,83	14,55
299,05	16,14
299,26	12,75
299,48	17,58
299,69	14,23
299,91	19,65
300,12	22,02
300,34	17,78
300,55	17,32
300,77	13,56
300,98	10,78
301,20	23,74
301,41	9,87
301,63	8,58
301,84	18,53
302,06	15,07
302,28	18,88
302,49	19,17
302,71	7,62
302,92	3,07
303,14	10,59
303,35	15,43
303,57	15,04
303,78	10,67
304,00	5,58
304,21	11,10
304,43	12,02
304,64	19,29
304,86	8,16
305,07	14,25
305,29	10,19
305,50	13,06
305,71	17,57
305,93	8,42
306,14	14,09
306,36	7,76
306,57	14,65
306,79	10,99
307,00	14,34
307,22	15,22
307,43	16,16
307,65	13,49
307,86	1,84
308,08	12,86
308,29	23,06
308,51	17,02
308,72	6,41
308,94	13,65
309,15	19,95
309,37	6,18
309,58	9,37
309,80	24,17
310,01	24,15
310,22	21,23
310,44	12,91
310,65	15,15
310,87	5,91
311,08	10,26
311,30	10,47
311,51	7,13
311,73	10,92
311,94	15,88
312,16	14,87
312,37	19,82
312,58	15,87
312,80	12,12
313,01	5,07
313,23	12,74
313,44	15,86
313,66	22,13
313,87	13,31
314,09	14,50
314,30	25,60
314,51	10,15
314,73	13,72
314,94	15,87
315,16	21,91
315,37	15,83
315,59	18,98
315,80	18,02
316,01	14,63
316,23	14,05
316,44	10,93
316,66	12,76
316,87	21,81
317,09	17,03
317,30	15,99
317,51	14,28
317,73	11,47
317,94	12,67
318,16	14,19
318,37	10,47
318,58	18,24
318,80	11,35
319,01	5,43
319,23	11,64
319,44	9,19
319,66	5,74
319,87	10,98
320,08	6,99
320,30	4,62
320,51	14,37
320,73	15,15
320,94	15,98
321,15	9,10
321,37	17,05
321,58	26,21
321,80	15,53
322,01	15,02
322,22	19,10
322,44	7,08
322,65	15,71
322,86	9,85
323,08	18,38
323,29	13,40
323,51	8,55
323,72	6,27
323,93	30,05
324,15	13,19
324,36	5,62
324,58	15,81
324,79	17,69
325,00	11,83
325,22	10,43
325,43	17,90
325,64	17,45
325,86	10,79
326,07	18,85
326,28	11,43
326,50	14,30
326,71	16,96
326,93	12,34
327,14	15,44
327,35	20,94
327,57	16,19
327,78	12,35
327,99	2,74
328,21	8,96
328,42	21,83
328,63	17,35
328,85	22,51
329,06	18,20
329,27	14,58
329,49	41,35
329,70	56,64
329,91	94,11
330,13	131,40
330,34	137,48
330,56	146,30
330,77	113,20
330,98	88,03
331,20	58,67
331,41	42,90
331,62	30,90
331,84	21,97
332,05	15,24
332,26	11,26
332,48	10,52
332,69	7,45
332,90	18,39
333,11	17,69
333,33	13,59
333,54	13,25
333,75	13,23
333,97	8,25
334,18	23,23
334,39	14,91
334,61	14,81
334,82	14,98
335,03	22,38
335,25	16,99
335,46	11,47
335,67	4,32
335,89	14,99
336,10	17,98
336,31	6,07
336,53	17,80
336,74	16,71
336,95	7,48
337,16	16,13
337,38	14,89
337,59	11,64
337,80	8,73
338,02	14,45
338,23	20,90
338,44	10,33
338,65	9,77
338,87	15,11
339,08	8,59
339,29	14,20
339,51	1,22
339,72	9,10
339,93	14,61
340,14	13,24
340,36	13,52
340,57	11,74
340,78	17,27
341,00	15,80
341,21	16,67
341,42	18,03
341,63	13,26
341,85	14,03
342,06	14,88
342,27	9,38
342,49	13,43
342,70	14,20
342,91	24,24
343,12	17,10
343,34	20,43
343,55	10,44
343,76	22,61
343,97	13,38
344,19	25,25
344,40	11,58
344,61	15,41
344,82	20,88
345,04	17,85
345,25	18,69
345,46	16,03
345,67	4,52
345,89	8,34
346,10	14,99
346,31	21,07
346,52	12,35
346,74	23,91
346,95	19,48
347,16	12,65
347,37	16,40
347,59	7,35
347,80	9,75
348,01	12,24
348,22	26,32
348,43	17,60
348,65	8,37
348,86	9,74
349,07	11,71
349,28	21,13
349,50	15,19
349,71	16,15
349,92	23,50
350,13	17,78
350,34	10,27
350,56	11,74
350,77	11,04
350,98	9,73
351,19	15,42
351,41	7,60
351,62	15,54
351,83	14,27
352,04	21,66
352,25	18,00
352,47	21,52
352,68	14,94
352,89	23,99
353,10	14,69
353,31	15,56
353,53	7,14
353,74	18,05
353,95	18,62
354,16	22,19
354,37	12,13
354,59	10,19
354,80	9,27
355,01	8,13
355,22	21,19
355,43	10,17
355,65	14,49
355,86	17,84
356,07	11,78
356,28	10,58
356,49	14,13
356,70	23,09
356,92	13,62
357,13	16,18
357,34	9,40
357,55	20,40
357,76	7,54
357,98	16,85
358,19	14,87
358,40	6,56
358,61	11,24
358,82	8,87
359,03	11,82
359,25	14,85
359,46	21,84
359,67	12,94
359,88	16,09
360,09	13,19
360,30	18,33
360,51	16,62
360,73	12,67
360,94	6,16
361,15	7,89
361,36	20,78
361,57	24,32
361,78	11,17
362,00	26,99
362,21	18,15
362,42	15,30
362,63	17,17
362,84	2,10
363,05	10,87
363,26	14,53
363,48	13,96
363,69	22,35
363,90	10,25
364,11	11,61
364,32	18,55
364,53	22,94
364,74	14,07
364,95	16,07
365,17	17,46
365,38	20,96
365,59	13,68
365,80	6,01
366,01	23,29
366,22	16,08
366,43	13,01
366,64	18,80
366,86	16,91
367,07	20,02
367,28	24,95
367,49	15,85
367,70	14,92
367,91	21,63
368,12	18,32
368,33	5,94
368,54	20,19
368,76	27,05
368,97	11,11
369,18	8,80
369,39	13,77
369,60	12,36
369,81	13,19
370,02	15,06
370,23	24,19
370,44	26,34
370,65	10,19
370,87	9,86
371,08	8,94
371,29	15,77
371,50	18,13
371,71	14,50
371,92	12,47
372,13	8,71
372,34	9,42
372,55	15,46
372,76	14,67
372,97	18,75
373,18	16,53
373,40	18,46
373,61	13,22
373,82	21,46
374,03	11,45
374,24	20,48
374,45	10,66
374,66	11,86
374,87	23,14
375,08	10,16
375,29	7,09
375,50	21,28
375,71	12,16
375,92	9,97
376,13	11,27
376,34	15,97
376,56	15,54
376,77	8,50
376,98	-1,88
377,19	17,63
377,40	14,68
377,61	15,82
377,82	11,62
378,03	4,55
378,24	23,85
378,45	19,68
378,66	12,79
378,87	14,70
379,08	12,25
379,29	24,29
379,50	20,39
379,71	19,31
379,92	19,31
380,13	17,51
380,34	10,26
380,55	11,40
380,76	14,60
380,97	17,73
381,18	19,21
381,39	8,96
381,60	17,81
381,81	16,49
382,02	22,40
382,24	14,97
382,45	7,83
382,66	17,35
382,87	19,57
383,08	15,07
383,29	12,60
383,50	12,32
383,71	8,60
383,92	10,96
384,13	15,14
384,34	17,23
384,55	14,42
384,76	16,68
384,97	15,29
385,18	8,07
385,39	11,89
385,60	1,98
385,81	24,15
386,02	19,50
386,23	15,14
386,44	19,60
386,65	11,50
386,86	11,89
387,07	14,07
387,28	15,99
387,49	18,41
387,70	15,87
387,91	14,59
388,12	9,64
388,32	16,03
388,53	3,80
388,74	14,16
388,95	6,18
389,16	11,41
389,37	12,08
389,58	13,49
389,79	11,57
390,00	10,22
390,21	17,47
390,42	14,15
390,63	20,73
390,84	20,65
391,05	12,76
391,26	11,62
391,47	12,41
391,68	11,61
391,89	10,61
392,10	12,51
392,31	14,46
392,52	6,01
392,73	13,97
392,94	13,01
393,15	20,52
393,36	15,75
393,57	17,56
393,78	20,67
393,98	11,90
394,19	13,94
394,40	17,67
394,61	18,95
394,82	11,79
395,03	12,73
395,24	22,59
395,45	17,97
395,66	20,24
395,87	14,45
396,08	15,01
396,29	20,92
396,50	12,92
396,71	15,45
396,92	15,46
397,12	14,28
397,33	13,15
397,54	9,22
397,75	19,00
397,96	19,84
398,17	7,55
398,38	9,10
398,59	24,36
398,80	12,14
399,01	22,60
399,22	14,27
399,43	9,92
399,63	10,72
399,84	10,88
400,05	16,82
400,26	16,29
400,47	11,14
400,68	16,96
400,89	14,73
401,10	8,93
401,31	4,55
401,52	8,97
401,72	6,10
401,93	18,61
402,14	16,66
402,35	23,22
402,56	17,39
402,77	14,48
402,98	5,78
403,19	13,75
403,40	15,82
403,60	12,08
403,81	10,99
404,02	18,74
404,23	8,05
404,44	17,36
404,65	13,53
404,86	13,48
405,07	15,64
405,27	9,08
405,48	11,81
405,69	18,53
405,90	18,98
406,11	15,69
406,32	16,64
406,53	23,94
406,74	17,62
406,94	10,15
407,15	16,68
407,36	10,39
407,57	2,65
407,78	16,34
407,99	18,08
408,20	10,95
408,40	18,27
408,61	8,58
408,82	4,62
409,03	20,57
409,24	14,49
409,45	16,08
409,65	17,72
409,86	14,34
410,07	19,12
410,28	17,66
410,49	10,33
410,70	12,75
410,90	19,76
411,11	13,74
411,32	7,83
411,53	13,70
411,74	19,66
411,95	21,17
412,15	13,35
412,36	-0,64
412,57	25,17
412,78	10,85
412,99	15,72
413,20	18,19
413,40	18,24
413,61	12,47
413,82	13,21
414,03	9,67
414,24	16,83
414,44	12,21
414,65	16,94
414,86	9,43
415,07	19,83
415,28	21,27
415,48	14,57
415,69	27,03
415,90	21,64
416,11	16,04
416,32	17,83
416,53	21,39
416,73	8,51
416,94	22,35
417,15	22,46
417,36	17,41
417,56	12,41
417,77	16,37
417,98	13,52
418,19	21,83
418,40	14,12
418,60	11,56
418,81	15,92
419,02	15,42
419,23	9,22
419,44	20,56
419,64	18,80
419,85	23,07
420,06	17,94
420,27	30,07
420,47	23,62
420,68	25,32
420,89	11,53
421,10	14,78
421,30	23,53
421,51	14,46
421,72	10,92
421,93	12,05
422,14	10,14
422,34	12,72
422,55	26,61
422,76	19,08
422,97	10,28
423,17	15,91
423,38	12,78
423,59	13,36
423,80	19,21
424,00	8,27
424,21	15,20
424,42	10,59
424,63	13,36
424,83	17,35
425,04	14,28
425,25	20,45
425,46	5,65
425,66	11,84
425,87	10,71
426,08	23,05
426,28	13,97
426,49	26,47
426,70	8,40
426,91	17,70
427,11	23,70
427,32	25,43
427,53	25,30
427,74	18,51
427,94	11,82
428,15	13,15
428,36	7,71
428,56	14,78
428,77	11,56
428,98	15,89
429,19	18,51
429,39	17,21
429,60	16,88
429,81	21,23
430,01	11,12
430,22	16,02
430,43	13,55
430,64	21,82
430,84	19,08
431,05	17,88
431,26	13,03
431,46	20,07
431,67	12,98
431,88	10,62
432,08	18,46
432,29	10,54
432,50	15,49
432,70	14,37
432,91	22,47
433,12	13,22
433,33	16,42
433,53	17,58
433,74	15,62
433,95	26,00
434,15	14,02
434,36	17,13
434,57	13,75
434,77	14,69
434,98	11,66
435,19	15,79
435,39	9,67
435,60	8,17
435,81	21,55
436,01	8,93
436,22	13,08
436,43	14,10
436,63	19,16
436,84	12,16
437,05	10,15
437,25	9,70
437,46	13,98
437,67	16,17
437,87	12,76
438,08	8,24
438,29	15,42
438,49	13,39
438,70	22,26
438,91	15,85
439,11	15,99
439,32	13,95
439,52	21,85
439,73	17,58
439,94	16,57
440,14	14,70
440,35	19,18
440,56	13,00
440,76	21,93
440,97	28,07
441,18	10,78
441,38	15,13
441,59	11,47
441,79	15,88
442,00	13,27
442,21	18,45
442,41	14,00
442,62	15,51
442,83	13,83
443,03	13,03
443,24	24,00
443,44	10,21
443,65	7,73
443,86	8,98
444,06	12,65
444,27	20,88
444,48	16,51
444,68	13,53
444,89	21,14
445,09	15,21
445,30	13,33
445,51	15,11
445,71	15,46
445,92	15,39
446,12	24,07
446,33	18,30
446,54	17,54
446,74	13,32
446,95	22,83
447,15	17,60
447,36	11,98
447,57	12,93
447,77	16,41
447,98	13,11
448,18	9,70
448,39	14,11
448,59	23,57
448,80	9,55
449,01	20,54
449,21	15,13
449,42	8,48
449,62	19,36
449,83	20,21
450,04	8,30
450,24	24,43
450,45	15,94
450,65	25,34
450,86	13,00
451,06	13,21
451,27	14,77
451,47	18,42
451,68	13,28
451,89	15,81
452,09	16,82
452,30	15,46
452,50	11,30
452,71	16,48
452,91	15,27
453,12	21,23
453,33	11,17
453,53	4,65
453,74	20,46
453,94	13,31
454,15	16,58
454,35	12,80
454,56	16,18
454,76	10,82
454,97	19,04
455,17	6,38
455,38	16,54
455,58	13,38
455,79	13,78
456,00	20,99
456,20	18,23
456,41	14,69
456,61	11,69
456,82	7,64
457,02	14,44
457,23	16,86
457,43	13,35
457,64	10,42
457,84	14,19
458,05	8,45
458,25	13,63
458,46	17,49
458,66	17,57
458,87	13,15
459,07	14,39
459,28	12,16
459,48	16,42
459,69	16,73
459,89	13,35
460,10	16,71
460,30	14,41
460,51	13,07
460,71	12,56
460,92	16,53
461,12	23,05
461,33	11,14
461,53	15,21
461,74	0,39
461,94	11,38
462,15	17,94
462,35	19,81
462,56	20,15
462,76	16,84
462,97	21,15
463,17	21,92
463,38	13,19
463,58	19,85
463,79	18,43
463,99	22,06
464,20	11,00
464,40	14,38
464,61	10,51
464,81	17,63
465,02	7,41
465,22	23,15
465,43	18,18
465,63	12,77
465,83	14,72
466,04	31,51
466,24	13,14
466,45	20,64
466,65	20,55
466,86	21,70
467,06	21,30
467,27	23,03
467,47	13,65
467,68	15,12
467,88	9,27
468,08	7,54
468,29	14,63
468,49	21,57
468,70	14,38
468,90	6,08
469,11	18,00
469,31	10,49
469,52	24,89
469,72	9,83
469,92	8,10
470,13	10,22
470,33	21,12
470,54	11,02
470,74	18,66
470,95	12,32
471,15	13,04
471,35	20,43
471,56	14,47
471,76	12,51
471,97	12,40
472,17	6,03
472,38	14,38
472,58	13,69
472,78	27,55
472,99	16,36
473,19	11,04
473,40	9,07
473,60	17,42
473,80	11,62
474,01	20,72
474,21	19,36
474,42	13,40
474,62	17,45
474,83	21,84
475,03	15,24
475,23	14,80
475,44	12,21
475,64	12,67
475,85	9,17
476,05	14,48
476,25	16,85
476,46	12,73
476,66	15,63
476,86	12,73
477,07	11,58
477,27	5,62
477,48	19,84
477,68	17,71
477,88	4,95
478,09	13,94
478,29	15,33
478,50	19,61
478,70	18,81
478,90	15,23
479,11	11,60
479,31	18,27
479,51	26,49
479,72	3,04
479,92	17,28
480,12	23,91
480,33	14,35
480,53	12,33
480,74	18,33
480,94	14,66
481,14	15,56
481,35	24,00
481,55	15,34
481,75	10,11
481,96	18,51
482,16	22,36
482,36	13,67
482,57	14,77
482,77	19,81
482,97	20,78
483,18	22,75
483,38	16,58
483,58	5,70
483,79	17,44
483,99	14,16
484,19	15,72
484,40	11,52
484,60	17,36
484,80	18,60
485,01	15,89
485,21	22,17
485,41	23,17
485,62	14,99
485,82	18,58
486,02	7,48
486,23	16,78
486,43	9,75
486,63	15,47
486,84	12,14
487,04	18,13
487,24	17,61
487,45	10,34
487,65	9,95
487,85	12,62
488,06	21,02
488,26	15,91
488,46	4,95
488,67	9,93
488,87	19,79
489,07	17,15
489,27	10,28
489,48	13,31
489,68	23,06
489,88	8,36
490,09	18,48
490,29	13,92
490,49	15,10
490,70	12,76
490,90	8,67
491,10	15,38
491,30	25,08
491,51	11,53
491,71	20,64
491,91	14,94
492,12	17,46
492,32	15,54
492,52	24,29
492,72	16,01
492,93	23,29
493,13	13,85
493,33	19,84
493,53	25,92
493,74	11,25
493,94	11,33
494,14	21,81
494,34	19,37
494,55	22,14
494,75	19,64
494,95	17,24
495,16	27,68
495,36	10,56
495,56	16,83
495,76	9,63
495,97	15,67
496,17	13,25
496,37	8,63
496,57	11,03
496,78	12,31
496,98	13,47
497,18	21,85
497,38	19,23
497,59	26,38
497,79	41,14
497,99	50,30
498,19	40,21
498,39	49,94
498,60	32,03
498,80	31,82
499,00	28,93
499,20	23,93
499,41	20,55
499,61	13,81
499,81	16,67
500,01	18,20
500,22	22,16
500,42	16,10
500,62	18,31
500,82	4,71
501,02	20,33
501,23	10,58
501,43	27,04
501,63	23,27
501,83	24,18
502,03	10,27
502,24	12,66
502,44	7,21
502,64	11,70
502,84	20,79
503,05	21,31
503,25	13,80
503,45	8,29
503,65	15,24
503,85	4,83
504,06	10,90
504,26	18,08
504,46	18,61
504,66	17,07
504,86	20,42
505,06	13,28
505,27	28,31
505,47	8,17
505,67	19,64
505,87	14,40
506,07	16,40
506,28	12,97
506,48	11,16
506,68	17,85
506,88	15,70
507,08	27,39
507,28	18,41
507,49	14,48
507,69	16,11
507,89	9,23
508,09	15,38
508,29	22,40
508,49	23,20
508,70	12,77
508,90	11,70
509,10	18,19
509,30	17,37
509,50	10,39
509,70	19,16
509,91	20,02
510,11	19,14
510,31	15,08
510,51	24,70
510,71	8,88
510,91	18,63
511,11	12,79
511,32	15,49
511,52	18,49
511,72	10,85
511,92	14,22
512,12	10,93
512,32	12,03
512,52	20,34
512,73	13,30
512,93	13,24
513,13	16,06
513,33	21,95
513,53	20,60
513,73	14,91
513,93	8,68
514,13	18,68
514,34	8,57
514,54	25,82
514,74	9,25
514,94	24,33
515,14	27,46
515,34	16,41
515,54	25,05
515,74	28,05
515,94	22,99
516,15	28,23
516,35	23,29
516,55	20,25
516,75	24,35
516,95	11,43
517,15	19,88
517,35	12,25
517,55	19,45
517,75	17,60
517,95	20,05
518,16	16,35
518,36	10,01
518,56	16,12
518,76	21,35
518,96	14,01
519,16	14,15
519,36	22,72
519,56	12,36
519,76	5,72
519,96	16,35
520,16	20,44
520,37	15,67
520,57	14,49
520,77	18,99
520,97	20,23
521,17	6,89
521,37	11,28
521,57	17,71
521,77	23,26
521,97	16,09
522,17	18,03
522,37	13,23
522,57	21,76
522,77	17,83
522,97	14,17
523,17	20,56
523,37	20,95
523,58	20,34
523,78	20,66
523,98	18,04
524,18	19,35
524,38	29,01
524,58	18,98
524,78	15,98
524,98	19,83
525,18	12,83
525,38	7,40
525,58	24,79
525,78	10,35
525,98	10,33
526,18	18,33
526,38	12,66
526,58	8,62
526,78	20,81
526,98	22,13
527,18	6,36
527,38	12,33
527,58	11,44
527,78	25,42
527,98	25,55
528,18	28,41
528,38	11,11
528,58	19,90
528,78	20,35
528,98	14,22
529,18	19,73
529,38	18,94
529,58	10,49
529,78	12,13
529,98	21,31
530,18	19,95
530,38	12,18
530,58	20,13
530,78	12,07
530,98	28,63
531,18	21,69
531,38	14,28
531,58	11,10
531,78	21,50
531,98	25,63
532,18	12,43
532,38	18,83
532,58	23,74
532,78	20,63
532,98	16,35
533,18	12,65
533,38	21,82
533,58	13,12
533,78	16,32
533,98	14,54
534,18	17,49
534,38	9,46
534,58	14,83
534,78	15,28
534,98	18,61
535,18	12,99
535,38	17,95
535,58	20,14
535,78	16,78
535,98	19,23
536,18	15,42
536,38	23,62
536,58	16,85
536,78	19,10
536,98	16,58
537,18	17,66
537,38	16,53
537,58	12,10
537,78	3,98
537,98	21,17
538,17	25,96
538,37	8,37
538,57	23,64
538,77	13,54
538,97	15,39
539,17	16,69
539,37	18,07
539,57	17,36
539,77	25,70
539,97	18,30
540,17	19,78
540,37	19,96
540,57	12,34
540,77	19,21
540,97	24,42
541,16	28,13
541,36	8,40
541,56	20,14
541,76	28,32
541,96	16,10
542,16	17,31
542,36	16,67
542,56	13,80
542,76	10,17
542,96	14,15
543,16	27,96
543,36	18,00
543,55	20,09
543,75	9,83
543,95	17,25
544,15	24,49
544,35	14,56
544,55	15,51
544,75	14,61
544,95	18,12
545,15	19,62
545,35	23,15
545,54	25,20
545,74	11,93
545,94	14,33
546,14	13,90
546,34	15,73
546,54	18,22
546,74	26,11
546,94	16,71
547,14	12,44
547,33	11,16
547,53	18,71
547,73	9,72
547,93	20,63
548,13	18,53
548,33	18,27
548,53	20,54
548,72	14,32
548,92	15,29
549,12	16,67
549,32	20,41
549,52	12,44
549,72	26,00
549,92	19,12
550,12	19,83
550,31	7,60
550,51	29,66
550,71	18,50
550,91	14,49
551,11	21,97
551,31	18,61
551,50	15,93
551,70	17,86
551,90	18,90
552,10	13,75
552,30	23,04
552,50	18,49
552,70	12,69
552,89	14,87
553,09	18,24
553,29	13,78
553,49	19,77
553,69	16,38
553,88	29,43
554,08	10,40
554,28	14,68
554,48	20,18
554,68	17,81
554,88	16,79
555,07	16,65
555,27	17,90
555,47	20,70
555,67	30,40
555,87	16,02
556,06	15,92
556,26	27,80
556,46	13,75
556,66	16,80
556,86	18,75
557,06	21,96
557,25	15,25
557,45	17,28
557,65	24,65
557,85	16,15
558,05	19,78
558,24	16,69
558,44	18,30
558,64	17,99
558,84	13,93
559,03	12,24
559,23	19,03
559,43	20,97
559,63	20,22
559,83	27,07
560,02	24,86
560,22	26,95
560,42	13,81
560,62	14,92
560,82	23,77
561,01	23,13
561,21	15,37
561,41	26,17
561,61	12,82
561,80	20,29
562,00	17,12
562,20	16,81
562,40	22,17
562,59	20,00
562,79	14,31
562,99	19,85
563,19	11,86
563,38	24,41
563,58	29,44
563,78	23,58
563,98	33,13
564,17	21,45
564,37	24,61
564,57	25,29
564,77	25,03
564,96	12,40
565,16	22,92
565,36	19,69
565,56	21,80
565,75	21,61
565,95	19,29
566,15	21,43
566,35	19,61
566,54	26,23
566,74	15,34
566,94	21,16
567,14	21,92
567,33	39,39
567,53	44,19
567,73	74,75
567,92	129,24
568,12	183,00
568,32	239,10
568,52	291,08
568,71	327,08
568,91	337,03
569,11	305,83
569,30	255,11
569,50	192,11
569,70	138,24
569,90	81,39
570,09	70,69
570,29	59,99
570,49	50,65
570,68	43,41
570,88	34,43
571,08	30,04
571,27	30,51
571,47	28,36
571,67	30,96
571,87	27,06
572,06	26,23
572,26	17,68
572,46	17,49
572,65	23,50
572,85	25,67
573,05	37,83
573,24	31,06
573,44	18,43
573,64	19,83
573,83	27,33
574,03	30,72
574,23	29,72
574,42	32,84
574,62	26,98
574,82	28,16
575,01	30,34
575,21	32,29
575,41	23,32
575,60	23,48
575,80	34,00
576,00	25,34
576,19	20,89
576,39	33,00
576,59	34,20
576,78	31,83
576,98	37,15
577,18	33,42
577,37	26,51
577,57	25,78
577,77	28,53
577,96	31,33
578,16	38,15
578,35	34,71
578,55	35,77
578,75	35,79
578,94	34,51
579,14	38,72
579,34	44,10
579,53	45,32
579,73	39,96
579,93	39,85
580,12	48,55
580,32	44,97
580,51	35,35
580,71	51,18
580,91	38,58
581,10	48,24
581,30	41,70
581,50	40,52
581,69	43,18
581,89	49,50
582,08	42,81
582,28	41,87
582,48	50,11
582,67	53,06
582,87	51,16
583,06	61,89
583,26	58,86
583,46	51,16
583,65	51,30
583,85	55,68
584,04	47,53
584,24	62,60
584,44	64,12
584,63	71,39
584,83	74,27
585,02	81,69
585,22	89,78
585,42	86,68
585,61	105,29
585,81	102,11
586,00	113,17
586,20	129,52
586,39	129,15
586,59	142,80
586,79	149,05
586,98	152,26
587,18	175,98
587,37	192,79
587,57	250,73
587,76	622,11
587,96	2542,94
588,16	6909,40
588,35	13615,72
588,55	23953,73
588,74	38032,07
588,94	52302,18
589,13	59988,14
589,33	61565,59
589,52	61757,00
589,72	60488,50
589,92	56531,51
590,11	46116,58
590,31	31802,86
590,50	20949,91
590,70	13521,78
590,89	9488,23
591,09	6770,99
591,28	4837,92
591,48	3418,98
591,67	2368,14
591,87	1570,75
592,06	1020,03
592,26	652,57
592,46	428,79
592,65	305,57
592,85	239,29
593,04	194,73
593,24	171,49
593,43	149,71
593,63	134,30
593,82	121,73
594,02	121,28
594,21	107,19
594,41	105,32
594,60	100,72
594,80	92,16
594,99	89,31
595,19	82,52
595,38	88,15
595,58	77,98
595,77	68,83
595,97	76,12
596,16	75,50
596,36	62,73
596,55	65,31
596,75	65,42
596,94	61,17
597,14	65,87
597,33	58,05
597,53	60,35
597,72	55,55
597,92	49,84
598,11	51,94
598,31	49,63
598,50	52,70
598,70	44,12
598,89	52,01
599,09	43,32
599,28	41,98
599,48	53,25
599,67	41,62
599,87	41,71
600,06	43,36
600,26	45,94
600,45	44,47
600,64	41,72
600,84	38,56
601,03	40,23
601,23	42,08
601,42	41,00
601,62	39,14
601,81	42,29
602,01	42,29
602,20	42,81
602,40	34,60
602,59	43,79
602,78	32,80
602,98	24,35
603,17	36,23
603,37	53,34
603,56	40,96
603,76	36,64
603,95	39,44
604,15	32,75
604,34	35,14
604,53	33,06
604,73	47,19
604,92	39,07
605,12	34,57
605,31	26,90
605,51	30,00
605,70	32,34
605,89	29,87
606,09	25,39
606,28	44,13
606,48	34,17
606,67	36,54
606,87	36,99
607,06	26,51
607,25	27,01
607,45	21,69
607,64	34,63
607,84	37,65
608,03	25,47
608,22	17,34
608,42	28,73
608,61	26,67
608,81	29,75
609,00	30,16
609,19	26,68
609,39	36,60
609,58	32,35
609,78	33,54
609,97	29,63
610,16	28,88
610,36	24,07
610,55	32,91
610,75	30,12
610,94	20,97
611,13	24,05
611,33	34,72
611,52	22,74
611,71	23,89
611,91	18,86
612,10	27,74
612,30	23,53
612,49	23,86
612,68	19,45
612,88	33,92
613,07	21,38
613,26	30,01
613,46	24,44
613,65	25,44
613,84	23,92
614,04	29,83
614,23	17,10
614,43	31,72
614,62	28,80
614,81	35,81
615,01	42,73
615,20	48,96
615,39	55,57
615,59	68,73
615,78	85,89
615,97	77,70
616,17	88,88
616,36	78,22
616,55	60,90
616,75	63,87
616,94	51,42
617,13	47,53
617,33	36,20
617,52	30,71
617,71	30,66
617,91	22,03
618,10	34,27
618,29	25,61
618,49	19,72
618,68	22,68
618,87	22,61
619,07	22,23
619,26	23,48
619,45	25,04
619,65	21,80
619,84	26,13
620,03	22,25
620,22	20,20
620,42	25,33
620,61	27,98
620,80	16,41
621,00	26,74
621,19	24,21
621,38	23,11
621,58	19,74
621,77	26,08
621,96	30,15
622,15	28,15
622,35	23,41
622,54	25,60
622,73	32,47
622,93	24,30
623,12	30,09
623,31	24,80
623,50	15,97
623,70	14,76
623,89	21,41
624,08	24,63
624,28	27,76
624,47	21,31
624,66	31,19
624,85	19,27
625,05	17,53
625,24	27,42
625,43	13,27
625,62	22,37
625,82	18,77
626,01	20,04
626,20	9,38
626,39	24,05
626,59	19,99
626,78	24,26
626,97	19,77
627,17	19,12
627,36	20,16
627,55	23,42
627,74	19,89
627,93	18,80
628,13	20,25
628,32	27,18
628,51	18,91
628,70	18,05
628,90	21,33
629,09	21,95
629,28	25,52
629,47	15,34
629,67	20,10
629,86	18,38
630,05	12,03
630,24	14,86
630,44	25,97
630,63	30,09
630,82	21,65
631,01	21,69
631,20	18,54
631,40	22,88
631,59	26,29
631,78	14,06
631,97	26,52
632,16	21,73
632,36	17,04
632,55	23,79
632,74	28,68
632,93	19,54
633,13	30,28
633,32	20,55
633,51	18,81
633,70	20,91
633,89	27,05
634,09	23,10
634,28	21,60
634,47	18,00
634,66	21,48
634,85	23,38
635,04	17,15
635,24	22,01
635,43	19,29
635,62	11,85
635,81	20,27
636,00	11,30
636,20	27,69
636,39	23,94
636,58	24,39
636,77	22,87
636,96	8,68
637,15	33,28
637,35	21,51
637,54	16,08
637,73	17,65
637,92	23,98
638,11	21,36
638,30	25,96
638,50	25,48
638,69	19,82
638,88	17,52
639,07	15,67
639,26	25,12
639,45	13,90
639,64	21,30
639,84	21,91
640,03	16,65
640,22	20,46
640,41	14,79
640,60	11,84
640,79	20,54
640,98	23,74
641,18	22,96
641,37	19,93
641,56	16,41
641,75	20,58
641,94	24,62
642,13	28,81
642,32	12,47
642,52	17,60
642,71	24,17
642,90	23,92
643,09	20,08
643,28	19,61
643,47	21,88
643,66	23,14
643,85	14,65
644,04	21,27
644,24	16,09
644,43	17,67
644,62	29,32
644,81	12,01
645,00	21,36
645,19	10,63
645,38	19,71
645,57	18,77
645,76	12,36
645,96	15,99
646,15	23,64
646,34	21,20
646,53	16,61
646,72	15,66
646,91	16,39
647,10	18,43
647,29	15,12
647,48	14,31
647,67	16,67
647,86	16,79
648,05	11,49
648,25	13,21
648,44	19,33
648,63	13,46
648,82	8,26
649,01	22,91
649,20	21,68
649,39	21,61
649,58	14,32
649,77	23,40
649,96	16,07
650,15	14,52
650,34	12,31
650,53	5,57
650,72	24,96
650,91	27,50
651,11	16,66
651,30	14,02
651,49	24,37
651,68	20,12
651,87	10,83
652,06	14,20
652,25	20,77
652,44	8,07
652,63	12,74
652,82	16,80
653,01	16,68
653,20	18,98
653,39	14,71
653,58	9,30
653,77	17,80
653,96	14,03
654,15	15,70
654,34	19,45
654,53	15,95
654,72	14,80
654,91	11,36
655,10	16,10
655,29	14,35
655,48	22,22
655,67	17,48
655,86	10,84
656,05	16,29
656,24	26,95
656,43	9,23
656,62	6,10
656,81	12,39
657,00	19,38
657,19	19,80
657,38	16,63
657,57	13,17
657,76	19,42
657,95	21,36
658,14	18,40
658,33	11,13
658,52	20,36
658,71	21,58
658,90	17,50
659,09	8,85
659,28	16,90
659,47	10,13
659,66	16,87
659,85	23,81
660,04	12,18
660,23	17,42
660,42	20,88
660,61	10,13
660,80	14,82
660,99	18,04
661,18	10,69
661,37	15,99
661,56	19,61
661,75	9,93
661,94	19,32
662,13	16,45
662,32	13,46
662,51	15,02
662,70	18,33
662,89	19,34
663,08	14,31
663,27	5,47
663,46	14,81
663,65	16,75
663,83	15,67
664,02	6,08
664,21	13,97
664,40	11,03
664,59	15,26
664,78	28,87
664,97	11,40
665,16	18,34
665,35	14,10
665,54	16,16
665,73	20,55
665,92	15,06
666,11	12,49
666,30	13,40
666,49	16,16
666,67	15,33
666,86	17,37
667,05	22,16
667,24	25,53
667,43	28,46
667,62	7,45
667,81	21,60
668,00	13,60
668,19	8,82
668,38	25,44
668,57	15,24
668,76	21,68
668,94	16,20
669,13	18,84
669,32	11,32
669,51	8,03
669,70	18,24
669,89	5,93
670,08	12,06
670,27	14,57
670,46	14,39
670,64	19,84
670,83	13,94
671,02	14,63
671,21	21,19
671,40	13,09
671,59	17,66
671,78	13,38
671,97	12,98
672,16	18,80
672,34	17,27
672,53	20,07
672,72	24,91
672,91	15,54
673,10	8,46
673,29	9,66
673,48	10,79
673,66	17,21
673,85	9,27
674,04	10,69
674,23	17,12
674,42	14,59
674,61	27,89
674,80	14,81
674,98	13,50
675,17	13,11
675,36	25,05
675,55	8,47
675,74	16,76
675,93	3,26
676,12	4,91
676,30	12,12
676,49	17,25
676,68	19,48
676,87	11,49
677,06	14,22
677,25	14,93
677,43	18,03
677,62	17,22
677,81	14,88
678,00	18,47
678,19	16,78
678,37	9,38
678,56	22,25
678,75	16,58
678,94	11,35
679,13	11,91
679,32	21,39
679,50	13,86
679,69	7,73
679,88	15,59
680,07	12,53
680,26	9,45
680,44	20,50
680,63	5,16
680,82	14,54
681,01	25,97
681,20	21,58
681,38	14,21
681,57	6,39
681,76	17,26
681,95	9,39
682,14	10,31
682,32	19,04
682,51	28,02
682,70	14,10
682,89	15,96
683,07	16,87
683,26	13,01
683,45	14,73
683,64	25,58
683,83	20,75
684,01	10,87
684,20	16,08
684,39	10,77
684,58	13,27
684,76	18,24
684,95	20,49
685,14	17,56
685,33	5,73
685,52	18,42
685,70	17,89
685,89	11,01
686,08	16,11
686,27	17,30
686,45	25,15
686,64	19,34
686,83	4,72
687,02	15,37
687,20	18,98
687,39	17,00
687,58	15,45
687,76	12,26
687,95	10,43
688,14	17,21
688,33	8,80
688,51	10,48
688,70	20,90
688,89	22,17
689,08	9,29
689,26	11,57
689,45	20,88
689,64	14,23
689,83	13,97
690,01	21,39
690,20	15,31
690,39	11,69
690,57	23,73
690,76	22,68
690,95	10,90
691,14	15,74
691,32	12,64
691,51	12,35
691,70	15,88
691,88	17,27
692,07	20,36
692,26	12,14
692,44	19,45
692,63	17,55
692,82	21,48
693,01	15,20
693,19	17,07
693,38	7,42
693,57	15,56
693,75	23,74
693,94	19,49
694,13	11,78
694,31	16,72
694,50	25,85
694,69	12,41
694,87	10,11
695,06	24,24
695,25	12,74
695,43	20,50
695,62	33,45
695,81	45,94
695,99	65,32
696,18	88,67
696,37	117,64
696,55	132,39
696,74	136,34
696,93	128,94
697,11	118,90
697,30	90,11
697,49	80,96
697,67	52,20
697,86	38,23
698,05	36,56
698,23	34,13
698,42	27,46
698,61	31,79
698,79	22,39
698,98	20,52
699,17	17,39
699,35	18,85
699,54	19,56
699,72	15,30
699,91	19,64
700,10	12,93
700,28	6,47
700,47	15,84
700,66	11,94
700,84	16,57
701,03	10,11
701,21	17,75
701,40	17,84
701,59	25,28
701,77	15,66
701,96	18,37
702,15	14,95
702,33	18,59
702,52	13,27
702,70	17,83
702,89	20,10
703,08	18,31
703,26	20,04
703,45	19,01
703,63	11,88
703,82	16,71
704,01	11,66
704,19	8,65
704,38	18,66
704,56	16,19
704,75	3,75
704,94	15,99
705,12	16,96
705,31	15,04
705,49	14,28
705,68	18,22
705,86	28,38
706,05	28,44
706,24	48,04
706,42	66,77
706,61	73,14
706,79	81,23
706,98	86,94
707,17	85,40
707,35	74,11
707,54	66,03
707,72	42,96
707,91	45,08
708,09	29,51
708,28	26,64
708,46	19,10
708,65	19,77
708,84	25,66
709,02	19,10
709,21	14,23
709,39	21,10
709,58	3,06
709,76	9,53
709,95	19,50
710,13	16,75
710,32	10,13
710,50	12,27
710,69	14,36
710,88	14,83
711,06	10,13
711,25	12,44
711,43	22,47
711,62	12,79
711,80	16,21
711,99	13,92
712,17	15,20
712,36	10,85
712,54	13,44
712,73	16,83
712,91	19,59
713,10	15,18
713,28	6,37
713,47	11,79
713,65	12,33
713,84	15,43
714,02	13,66
714,21	25,28
714,39	13,28
714,58	17,40
714,76	21,24
714,95	19,42
715,13	22,83
715,32	20,40
715,50	14,25
715,69	22,47
715,87	18,65
716,06	22,38
716,24	7,20
716,43	9,59
716,61	19,57
716,80	12,08
716,98	15,40
717,17	18,03
717,35	16,04
717,54	19,94
717,72	19,40
717,91	18,93
718,09	13,24
718,28	13,84
718,46	13,95
718,65	8,45
718,83	14,69
719,01	10,53
719,20	23,75
719,38	10,13
719,57	13,29
719,75	16,65
719,94	13,91
720,12	18,79
720,31	20,95
720,49	11,14
720,68	18,54
720,86	19,10
721,04	11,86
721,23	7,20
721,41	14,22
721,60	10,53
721,78	4,07
721,97	22,18
722,15	18,48
722,34	18,94
722,52	13,81
722,70	18,11
722,89	8,04
723,07	8,08
723,26	16,94
723,44	19,08
723,63	16,74
723,81	18,26
723,99	18,43
724,18	21,46
724,36	9,74
724,55	21,57
724,73	11,33
724,91	9,97
725,10	16,59
725,28	9,44
725,47	16,43
725,65	10,22
725,83	17,75
726,02	8,11
726,20	15,29
726,39	14,70
726,57	20,39
726,75	23,81
726,94	31,34
727,12	27,93
727,31	37,70
727,49	43,20
727,67	47,53
727,86	36,77
728,04	30,94
728,23	29,30
728,41	25,49
728,59	27,37
728,78	18,86
728,96	9,18
729,14	17,28
729,33	18,72
729,51	21,41
729,69	15,48
729,88	7,97
730,06	17,33
730,25	12,30
730,43	17,74
730,61	4,21
730,80	20,20
730,98	10,95
731,16	15,83
731,35	18,13
731,53	20,61
731,71	12,21
731,90	16,19
732,08	20,72
732,26	14,84
732,45	16,88
732,63	7,05
732,81	11,30
733,00	18,26
733,18	13,83
733,36	14,54
733,55	6,11
733,73	16,05
733,91	18,52
734,10	17,17
734,28	14,51
734,46	13,03
734,65	20,12
734,83	11,46
735,01	19,86
735,20	15,22
735,38	6,05
735,56	14,81
735,75	19,70
735,93	6,23
736,11	14,16
736,30	14,15
736,48	9,65
736,66	11,59
736,84	22,98
737,03	20,03
737,21	19,85
737,39	33,40
737,58	38,89
737,76	50,65
737,94	66,65
738,12	103,34
738,31	109,27
738,49	120,65
738,67	136,64
738,86	115,94
739,04	104,13
739,22	87,84
739,40	70,31
739,59	49,31
739,77	53,98
739,95	28,74
740,14	33,26
740,32	19,82
740,50	26,31
740,68	28,43
740,87	20,19
741,05	26,37
741,23	20,37
741,41	17,63
741,60	15,65
741,78	19,91
741,96	16,08
742,14	4,84
742,33	17,81
742,51	10,91
742,69	11,90
742,87	13,19
743,06	11,25
743,24	19,39
743,42	15,36
743,60	14,42
743,79	15,78
743,97	22,31
744,15	24,28
744,33	15,31
744,52	17,04
744,70	19,69
744,88	14,25
745,06	19,25
745,24	20,82
745,43	19,28
745,61	15,40
745,79	9,93
745,97	11,81
746,16	11,69
746,34	9,11
746,52	22,90
746,70	18,28
746,88	13,37
747,07	8,75
747,25	19,99
747,43	15,19
747,61	16,29
747,79	10,85
747,98	20,18
748,16	13,10
748,34	8,51
748,52	14,16
748,70	8,58
748,89	23,33
749,07	23,14
749,25	18,15
749,43	25,35
749,61	24,35
749,79	45,66
749,98	63,62
750,16	82,99
750,34	94,95
750,52	107,51
750,70	126,60
750,88	133,12
751,07	137,00
751,25	132,86
751,43	141,97
751,61	136,57
751,79	121,30
751,97	120,40
752,16	103,96
752,34	80,66
752,52	61,93
752,70	55,63
752,88	48,74
753,06	45,13
753,25	37,15
753,43	26,34
753,61	20,37
753,79	24,67
753,97	24,59
754,15	19,07
754,33	17,54
754,52	17,66
754,70	19,59
754,88	17,50
755,06	4,75
755,24	15,12
755,42	9,25
755,60	23,83
755,78	16,08
755,97	16,57
756,15	11,96
756,33	14,81
756,51	14,25
756,69	20,63
756,87	19,13
757,05	20,05
757,23	5,86
757,41	6,67
757,60	12,67
757,78	19,77
757,96	17,77
758,14	9,31
758,32	17,07
758,50	12,28
758,68	18,87
758,86	15,11
759,04	9,76
759,22	15,83
759,41	12,76
759,59	11,93
759,77	8,87
759,95	10,51
760,13	19,25
760,31	12,78
760,49	14,04
760,67	19,92
760,85	14,16
761,03	17,36
761,21	12,14
761,39	21,30
761,57	17,27
761,76	17,89
761,94	15,58
762,12	22,37
762,30	28,57
762,48	60,99
762,66	97,40
762,84	154,20
763,02	224,71
763,20	313,19
763,38	397,50
763,56	464,27
763,74	501,69
763,92	480,89
764,10	447,80
764,28	380,03
764,46	300,93
764,64	237,04
764,82	186,72
765,00	140,02
765,19	120,99
765,37	97,51
765,55	74,59
765,73	77,48
765,91	57,05
766,09	62,86
766,27	69,05
766,45	62,85
766,63	62,09
766,81	57,53
766,99	60,55
767,17	42,54
767,35	33,42
767,53	32,60
767,71	30,17
767,89	30,69
768,07	25,68
768,25	29,91
768,43	18,37
768,61	21,08
768,79	25,14
768,97	21,81
769,15	25,99
769,33	21,64
769,51	19,15
769,69	17,56
769,87	26,95
770,05	26,15
770,23	31,67
770,41	33,51
770,59	28,88
770,77	23,95
770,95	38,69
771,13	18,11
771,31	31,20
771,49	40,98
771,67	66,02
771,85	76,26
772,03	108,34
772,21	143,25
772,38	164,78
772,56	173,96
772,74	183,60
772,92	166,14
773,10	151,04
773,28	127,30
773,46	102,87
773,64	87,58
773,82	71,59
774,00	51,06
774,18	49,81
774,36	37,11
774,54	29,04
774,72	28,54
774,90	23,90
775,08	25,81
775,26	17,76
775,44	32,43
775,62	19,95
775,80	21,87
775,97	15,95
776,15	18,32
776,33	14,50
776,51	12,44
776,69	4,70
776,87	16,64
777,05	20,32
777,23	16,66
777,41	7,16
777,59	17,26
777,77	22,16
777,95	12,37
778,13	14,51
778,30	14,35
778,48	19,74
778,66	15,00
778,84	15,66
779,02	18,42
779,20	13,67
779,38	19,24
779,56	15,46
779,74	14,67
779,92	22,62
780,09	17,73
780,27	15,53
780,45	18,43
780,63	20,76
780,81	11,92
780,99	13,35
781,17	15,75
781,35	19,57
781,52	11,38
781,70	16,10
781,88	17,26
782,06	16,36
782,24	11,81
782,42	17,17
782,60	13,40
782,78	15,92
782,95	13,19
783,13	19,05
783,31	10,82
783,49	15,63
783,67	8,56
783,85	18,53
784,03	12,83
784,20	8,09
784,38	14,45
784,56	18,87
784,74	18,71
784,92	12,00
785,10	12,75
785,28	17,76
785,45	21,01
785,63	3,35
785,81	14,36
785,99	12,00
786,17	6,40
786,35	14,67
786,52	13,36
786,70	18,72
786,88	7,10
787,06	6,56
787,24	9,48
787,41	21,44
787,59	8,58
787,77	20,99
787,95	18,05
788,13	9,64
788,31	20,84
788,48	15,36
788,66	6,53
788,84	17,16
789,02	15,78
789,20	17,69
789,37	14,49
789,55	12,09
789,73	14,43
789,91	15,72
790,09	21,30
790,26	15,49
790,44	15,46
790,62	4,39
790,80	21,53
790,98	19,04
791,15	11,11
791,33	20,82
791,51	11,87
791,69	13,87
791,86	18,84
792,04	16,31
792,22	22,92
792,40	15,29
792,58	11,18
792,75	13,41
792,93	16,06
793,11	17,27
793,29	7,99
793,46	10,04
793,64	21,37
793,82	23,78
794,00	36,11
794,17	37,80
794,35	57,23
794,53	74,22
794,71	94,01
794,88	106,59
795,06	100,36
795,24	111,15
795,42	114,90
795,59	87,80
795,77	81,90
795,95	68,90
796,13	49,08
796,30	50,46
796,48	48,52
796,66	34,19
796,83	34,98
797,01	29,08
797,19	23,32
797,37	19,61
797,54	21,32
797,72	27,24
797,90	21,52
798,08	21,62
798,25	18,54
798,43	8,53
798,61	19,27
798,78	11,19
798,96	12,37
799,14	18,23
799,31	16,78
799,49	14,64
799,67	24,70
799,85	27,20
800,02	29,60
800,20	34,18
800,38	51,20
800,55	56,24
800,73	72,38
800,91	92,91
801,08	98,88
801,26	114,26
801,44	124,42
801,61	129,06
801,79	125,11
801,97	125,28
802,15	119,53
802,32	97,87
802,50	86,74
802,68	74,09
802,85	62,02
803,03	58,24
803,21	37,59
803,38	35,64
803,56	27,91
803,74	30,10
803,91	21,86
804,09	28,73
804,26	18,01
804,44	14,28
804,62	26,48
804,79	14,01
804,97	20,48
805,15	14,33
805,32	23,79
805,50	22,55
805,68	17,59
805,85	23,17
806,03	21,17
806,21	10,70
806,38	15,38
806,56	16,79
806,73	15,37
806,91	18,74
807,09	13,82
807,26	16,76
807,44	16,55
807,62	14,33
807,79	16,33
807,97	14,48
808,14	11,60
808,32	20,23
808,50	6,84
808,67	18,72
808,85	17,41
809,02	11,72
809,20	22,16
809,38	30,46
809,55	36,34
809,73	55,39
809,90	61,87
810,08	84,02
810,26	108,83
810,43	131,01
810,61	173,83
810,78	206,61
810,96	256,18
811,14	305,44
811,31	356,75
811,49	389,69
811,66	413,77
811,84	442,25
812,02	435,20
812,19	419,13
812,37	359,93
812,54	308,60
812,72	258,86
812,89	221,58
813,07	174,03
813,25	143,65
813,42	114,84
813,60	104,11
813,77	82,05
813,95	64,26
814,12	58,44
814,30	56,98
814,47	48,51
814,65	31,47
814,83	34,56
815,00	35,34
815,18	28,60
815,35	34,04
815,53	22,45
815,70	25,57
815,88	15,47
816,05	17,52
816,23	17,33
816,40	13,79
816,58	16,33
816,75	14,14
816,93	28,33
817,10	27,73
817,28	51,21
817,46	67,69
817,63	112,22
817,81	162,70
817,98	224,79
818,16	293,43
818,33	367,78
818,51	434,13
818,68	520,27
818,86	602,37
819,03	686,57
819,21	751,80
819,38	820,24
819,56	843,53
819,73	857,67
819,91	865,87
820,08	829,08
820,26	750,59
820,43	650,35
820,61	543,24
820,78	458,34
820,96	367,64
821,13	302,65
821,31	249,75
821,48	191,84
821,66	168,66
821,83	143,02
822,00	111,47
822,18	94,91
822,35	85,85
822,53	80,49
822,70	64,66
822,88	45,43
823,05	49,33
823,23	33,98
823,40	41,49
823,58	39,91
823,75	26,96
823,93	30,29
824,10	21,44
824,28	17,79
824,45	24,61
824,62	19,59
824,80	16,40
824,97	16,03
825,15	13,73
825,32	15,40
825,50	17,92
825,67	25,92
825,85	31,88
826,02	40,89
826,19	48,54
826,37	62,45
826,54	72,26
826,72	73,08
826,89	69,44
827,07	76,52
827,24	79,26
827,41	62,69
827,59	62,21
827,76	55,63
827,94	47,74
828,11	30,10
828,28	35,42
828,46	32,43
828,63	21,90
828,81	28,68
828,98	27,09
829,15	21,53
829,33	20,14
829,50	21,96
829,68	16,15
829,85	14,25
830,02	10,43
830,20	24,55
830,37	22,72
830,55	21,44
830,72	15,35
830,89	11,70
831,07	22,51
831,24	8,44
831,42	5,27
831,59	17,59
831,76	14,02
831,94	14,68
832,11	28,10
832,28	16,04
832,46	18,48
832,63	24,35
832,81	23,75
832,98	4,29
833,15	12,14
833,33	18,50
833,50	13,05
833,67	19,08
833,85	11,33
834,02	5,35
834,19	14,36
834,37	10,03
834,54	13,38
834,71	20,22
834,89	13,07
835,06	11,66
835,23	14,08
835,41	20,66
835,58	18,98
835,75	16,89
835,93	11,20
836,10	5,32
836,27	13,29
836,45	15,28
836,62	9,40
836,79	17,42
836,97	5,55
837,14	14,42
837,31	12,23
837,49	20,17
837,66	12,64
837,83	15,36
838,01	18,32
838,18	5,59
838,35	20,90
838,53	8,25
838,70	15,40
838,87	15,26
839,04	2,33
839,22	16,38
839,39	21,31
839,56	22,03
839,74	15,41
839,91	27,69
840,08	26,36
840,26	33,65
840,43	40,41
840,60	55,52
840,77	81,62
840,95	80,25
841,12	92,13
841,29	88,15
841,46	94,15
841,64	104,78
841,81	101,83
841,98	105,11
842,16	112,22
842,33	124,96
842,50	123,08
842,67	128,15
842,85	127,39
843,02	129,93
843,19	134,72
843,36	126,33
843,54	108,01
843,71	93,29
843,88	87,12
844,05	65,36
844,23	64,11
844,40	54,65
844,57	49,01
844,74	45,71
844,92	27,48
845,09	39,51
845,26	27,21
845,43	20,68
845,61	24,24
845,78	23,46
845,95	27,57
846,12	19,79
846,29	25,08
846,47	18,32
846,64	25,69
846,81	18,99
846,98	18,25
847,16	9,93
847,33	19,30
847,50	7,61
847,67	11,03
847,84	10,19
848,02	25,00
848,19	14,65
848,36	14,90
848,53	5,70
848,70	11,04
848,88	14,32
849,05	9,13
849,22	15,28
849,39	11,70
849,56	29,20
849,74	11,75
849,91	19,49
850,08	16,45
850,25	17,60
850,42	11,58
850,60	26,06
850,77	19,85
850,94	8,66
851,11	20,33
851,28	15,46
851,45	23,06
851,63	10,21
851,80	30,89
851,97	26,82
852,14	31,99
852,31	32,67
852,48	39,54
852,66	36,39
852,83	34,72
853,00	45,60
853,17	36,60
853,34	34,94
853,51	37,15
853,68	33,45
853,86	34,78
854,03	29,04
854,20	35,61
854,37	24,80
854,54	27,54
854,71	19,63
854,88	20,56
855,06	17,83
855,23	25,27
855,40	15,07
855,57	13,12
855,74	19,15
855,91	16,10
856,08	13,10
856,25	17,43
856,43	19,63
856,60	11,89
856,77	18,64
856,94	16,93
857,11	16,69
857,28	14,23
857,45	20,94
857,62	28,16
857,79	9,60
857,97	19,52
858,14	13,25
858,31	12,12
858,48	15,09
858,65	23,95
858,82	16,28
858,99	10,62
859,16	11,70
859,33	20,57
859,50	13,14
859,67	13,64
859,85	12,28
860,02	17,44
860,19	11,52
860,36	18,55
860,53	5,86
860,70	18,19
860,87	12,41
861,04	20,84
861,21	27,03
861,38	11,53
861,55	16,21
861,72	18,11
861,89	11,85
862,06	18,37
862,23	14,07
862,41	10,24
862,58	22,08
862,75	9,80
862,92	7,99
863,09	17,95
863,26	13,63
863,43	21,68
863,60	7,50
863,77	12,25
863,94	11,11
864,11	16,65
864,28	5,72
864,45	13,67
864,62	-3,81
864,79	13,73
864,96	12,00
865,13	20,29
865,30	12,14
865,47	15,61
865,64	12,42
865,81	13,06
865,98	13,40
866,15	17,97
866,32	23,72
866,49	20,55
866,66	12,12
866,83	13,75
867,00	19,67
867,17	11,64
867,34	18,73
867,51	11,68
867,68	23,86
867,85	23,40
868,02	19,14
868,19	7,40
868,36	22,80
868,53	23,61
868,70	16,32
868,87	28,76
869,04	18,95
869,21	20,70
869,38	17,19
869,55	13,78
869,72	27,47
869,89	19,40
870,06	18,53
870,23	12,76
870,40	3,11
870,57	17,42
870,74	19,51
870,91	10,61
871,08	8,49
871,25	20,49
871,42	17,93
871,59	17,36
871,76	16,80
871,93	15,57
872,10	16,46
872,27	4,27
872,44	9,42
872,60	11,11
872,77	16,04
872,94	13,65
873,11	21,97
873,28	18,79
873,45	10,47
873,62	21,66
873,79	16,66
873,96	8,95
874,13	12,19
874,30	17,43
874,47	6,49
874,64	18,05
874,81	12,43
874,97	13,06
875,14	10,38
875,31	24,29
875,48	14,88
875,65	18,26
875,82	14,64
875,99	17,00
876,16	12,65
876,33	12,97
876,50	13,59
876,67	14,71
876,83	7,93
877,00	6,10
877,17	18,77
877,34	11,11
877,51	21,41
877,68	10,45
877,85	16,50
878,02	3,93
878,19	15,70
878,35	17,62
878,52	23,80
878,69	13,27
878,86	6,23
879,03	20,25
879,20	11,25
879,37	16,56
879,54	3,87
879,70	14,71
879,87	12,20
880,04	7,83
880,21	8,14
880,38	7,51
880,55	17,43
880,72	16,06
880,89	11,19
881,05	9,94
881,22	17,55
881,39	10,88
881,56	8,00
881,73	12,17
881,90	22,97
882,06	4,06
882,23	14,32
882,40	16,36
882,57	15,73
882,74	17,47
882,91	18,33
883,07	-0,03
883,24	15,94
883,41	17,38
883,58	10,54
883,75	13,24
883,92	18,29
884,08	7,27
884,25	26,55
884,42	9,47
884,59	18,52
884,76	17,64
884,92	7,80
885,09	4,83
885,26	14,56
885,43	20,99
885,60	6,44
885,76	11,38
885,93	9,91
886,10	12,86
886,27	22,52
886,44	17,76
886,60	17,29
886,77	6,26
886,94	17,88
887,11	10,52
887,28	13,14
887,44	18,09
887,61	20,27
887,78	8,47
887,95	13,75
888,12	10,56
888,28	9,10
888,45	11,67
888,62	13,60
888,79	7,67
888,95	13,93
889,12	7,36
889,29	8,57
889,46	15,86
889,62	21,18
889,79	10,85
889,96	10,15
890,13	9,04
890,29	6,97
890,46	17,09
890,63	15,09
890,80	17,58
890,96	16,31
891,13	25,14
891,30	12,27
891,47	16,68
891,63	3,53
891,80	18,65
891,97	8,33
892,14	10,63
892,30	21,88
892,47	14,39
892,64	25,75
892,80	7,70
892,97	18,44
893,14	11,13
893,31	15,47
893,47	15,24
893,64	18,04
893,81	24,51
893,97	14,56
894,14	19,09
>>>>>End Processed Spectral Data<<<<<
